Voltage Amplitude:  5  Volts
Voltage Frequency:  1  Hz
Phase Difference:  180.0  Degrees

        time            y(t)            v(t)          y(t+1)          v(t+1)         Voltage
    0.000000     0.000000000     0.000000000     0.000000006    -0.000187752     0.000000000
    0.001000     0.000000006    -0.000187752    -0.000000035    -0.000084265    -0.031416000
    0.002000    -0.000000035    -0.000084265    -0.000000128    -0.000103398    -0.062830000
    0.003000    -0.000000128    -0.000103398    -0.000000244    -0.000273832    -0.094242000
    0.004000    -0.000000244    -0.000273832    -0.000000407    -0.000159119    -0.125650000
    0.005000    -0.000000407    -0.000159119    -0.000000676    -0.000524863    -0.157054000
    0.006000    -0.000000676    -0.000524863    -0.000002182    -0.002735060    -0.188451000
    0.007000    -0.000002182    -0.002735060    -0.000006489    -0.005931818    -0.219841000
    0.008000    -0.000006489    -0.005931818    -0.000014174    -0.009427836    -0.251222000
    0.009000    -0.000014174    -0.009427836    -0.000025403    -0.012999330    -0.282593000
    0.010000    -0.000025403    -0.012999330    -0.000040209    -0.016574180    -0.313953000
    0.011000    -0.000040209    -0.016574180    -0.000058580    -0.020129194    -0.345300000
    0.012000    -0.000058580    -0.020129194    -0.000080494    -0.023656955    -0.376634000
    0.013000    -0.000080494    -0.023656955    -0.000105920    -0.027155130    -0.407953000
    0.014000    -0.000105920    -0.027155130    -0.000134829    -0.030623026    -0.439256000
    0.015000    -0.000134829    -0.030623026    -0.000167190    -0.034060482    -0.470542000
    0.016000    -0.000167190    -0.034060482    -0.000202974    -0.037467502    -0.501809000
    0.017000    -0.000202974    -0.037467502    -0.000242149    -0.040844149    -0.533056000
    0.018000    -0.000242149    -0.040844149    -0.000284685    -0.044190503    -0.564282000
    0.019000    -0.000284685    -0.044190503    -0.000330553    -0.047506648    -0.595486000
    0.020000    -0.000330553    -0.047506648    -0.000379722    -0.050792670    -0.626666000
    0.021000    -0.000379722    -0.050792670    -0.000432161    -0.054048656    -0.657822000
    0.022000    -0.000432161    -0.054048656    -0.000487841    -0.057274693    -0.688951000
    0.023000    -0.000487841    -0.057274693    -0.000546733    -0.060470868    -0.720054000
    0.024000    -0.000546733    -0.060470868    -0.000608805    -0.063637267    -0.751128000
    0.025000    -0.000608805    -0.063637267    -0.000674029    -0.066773976    -0.782172000
    0.026000    -0.000674029    -0.066773976    -0.000742374    -0.069881082    -0.813186000
    0.027000    -0.000742374    -0.069881082    -0.000813812    -0.072958671    -0.844167000
    0.028000    -0.000813812    -0.072958671    -0.000888313    -0.076006827    -0.875115000
    0.029000    -0.000888313    -0.076006827    -0.000965846    -0.079025638    -0.906029000
    0.030000    -0.000965846    -0.079025638    -0.001046384    -0.082015187    -0.936907000
    0.031000    -0.001046384    -0.082015187    -0.001129897    -0.084975562    -0.967747000
    0.032000    -0.001129897    -0.084975562    -0.001216355    -0.087906847    -0.998550000
    0.033000    -0.001216355    -0.087906847    -0.001305730    -0.090809126    -1.029313000
    0.034000    -0.001305730    -0.090809126    -0.001397992    -0.093682486    -1.060036000
    0.035000    -0.001397992    -0.093682486    -0.001493114    -0.096527010    -1.090716000
    0.036000    -0.001493114    -0.096527010    -0.001591065    -0.099342784    -1.121354000
    0.037000    -0.001591065    -0.099342784    -0.001691818    -0.102129892    -1.151947000
    0.038000    -0.001691818    -0.102129892    -0.001795343    -0.104888419    -1.182495000
    0.039000    -0.001795343    -0.104888419    -0.001901613    -0.107618448    -1.212996000
    0.040000    -0.001901613    -0.107618448    -0.002010598    -0.110320064    -1.243449000
    0.041000    -0.002010598    -0.110320064    -0.002122270    -0.112993352    -1.273854000
    0.042000    -0.002122270    -0.112993352    -0.002236602    -0.115638396    -1.304208000
    0.043000    -0.002236602    -0.115638396    -0.002353564    -0.118255278    -1.334510000
    0.044000    -0.002353564    -0.118255278    -0.002473129    -0.120844084    -1.364760000
    0.045000    -0.002473129    -0.120844084    -0.002595269    -0.123404898    -1.394956000
    0.046000    -0.002595269    -0.123404898    -0.002719955    -0.125937802    -1.425096000
    0.047000    -0.002719955    -0.125937802    -0.002847160    -0.128442880    -1.455181000
    0.048000    -0.002847160    -0.128442880    -0.002976856    -0.130920217    -1.485208000
    0.049000    -0.002976856    -0.130920217    -0.003109016    -0.133369896    -1.515176000
    0.050000    -0.003109016    -0.133369896    -0.003243611    -0.135792000    -1.545085000
    0.051000    -0.003243611    -0.135792000    -0.003380615    -0.138186613    -1.574933000
    0.052000    -0.003380615    -0.138186613    -0.003519999    -0.140553818    -1.604718000
    0.053000    -0.003519999    -0.140553818    -0.003661737    -0.142893699    -1.634440000
    0.054000    -0.003661737    -0.142893699    -0.003805801    -0.145206339    -1.664098000
    0.055000    -0.003805801    -0.145206339    -0.003952163    -0.147491820    -1.693690000
    0.056000    -0.003952163    -0.147491820    -0.004100798    -0.149750227    -1.723215000
    0.057000    -0.004100798    -0.149750227    -0.004251677    -0.151981643    -1.752672000
    0.058000    -0.004251677    -0.151981643    -0.004404775    -0.154186150    -1.782059000
    0.059000    -0.004404775    -0.154186150    -0.004560063    -0.156363832    -1.811377000
    0.060000    -0.004560063    -0.156363832    -0.004717515    -0.158514772    -1.840623000
    0.061000    -0.004717515    -0.158514772    -0.004877105    -0.160639054    -1.869796000
    0.062000    -0.004877105    -0.160639054    -0.005038805    -0.162736759    -1.898895000
    0.063000    -0.005038805    -0.162736759    -0.005202590    -0.164807972    -1.927920000
    0.064000    -0.005202590    -0.164807972    -0.005368433    -0.166852775    -1.956868000
    0.065000    -0.005368433    -0.166852775    -0.005536307    -0.168871251    -1.985739000
    0.066000    -0.005536307    -0.168871251    -0.005706187    -0.170863484    -2.014532000
    0.067000    -0.005706187    -0.170863484    -0.005878045    -0.172829556    -2.043245000
    0.068000    -0.005878045    -0.172829556    -0.006051857    -0.174769551    -2.071878000
    0.069000    -0.006051857    -0.174769551    -0.006227595    -0.176683551    -2.100429000
    0.070000    -0.006227595    -0.176683551    -0.006405234    -0.178571639    -2.128896000
    0.071000    -0.006405234    -0.178571639    -0.006584748    -0.180433899    -2.157280000
    0.072000    -0.006584748    -0.180433899    -0.006766112    -0.182270414    -2.185579000
    0.073000    -0.006766112    -0.182270414    -0.006949299    -0.184081266    -2.213791000
    0.074000    -0.006949299    -0.184081266    -0.007134284    -0.185866539    -2.241916000
    0.075000    -0.007134284    -0.185866539    -0.007321041    -0.187626316    -2.269952000
    0.076000    -0.007321041    -0.187626316    -0.007509546    -0.189360679    -2.297899000
    0.077000    -0.007509546    -0.189360679    -0.007699771    -0.191069712    -2.325755000
    0.078000    -0.007699771    -0.191069712    -0.007891694    -0.192753499    -2.353520000
    0.079000    -0.007891694    -0.192753499    -0.008085287    -0.194412121    -2.381191000
    0.080000    -0.008085287    -0.194412121    -0.008280526    -0.196045663    -2.408768000
    0.081000    -0.008280526    -0.196045663    -0.008477386    -0.197654207    -2.436251000
    0.082000    -0.008477386    -0.197654207    -0.008675842    -0.199237837    -2.463637000
    0.083000    -0.008675842    -0.199237837    -0.008875869    -0.200796635    -2.490926000
    0.084000    -0.008875869    -0.200796635    -0.009077442    -0.202330686    -2.518116000
    0.085000    -0.009077442    -0.202330686    -0.009280537    -0.203840072    -2.545207000
    0.086000    -0.009280537    -0.203840072    -0.009485129    -0.205324877    -2.572198000
    0.087000    -0.009485129    -0.205324877    -0.009691194    -0.206785184    -2.599087000
    0.088000    -0.009691194    -0.206785184    -0.009898706    -0.208221076    -2.625873000
    0.089000    -0.009898706    -0.208221076    -0.010107642    -0.209632637    -2.652556000
    0.090000    -0.010107642    -0.209632637    -0.010317977    -0.211019950    -2.679134000
    0.091000    -0.010317977    -0.211019950    -0.010529688    -0.212383099    -2.705606000
    0.092000    -0.010529688    -0.212383099    -0.010742749    -0.213722167    -2.731972000
    0.093000    -0.010742749    -0.213722167    -0.010957137    -0.215037238    -2.758229000
    0.094000    -0.010957137    -0.215037238    -0.011172828    -0.216328395    -2.784378000
    0.095000    -0.011172828    -0.216328395    -0.011389799    -0.217595722    -2.810417000
    0.096000    -0.011389799    -0.217595722    -0.011608025    -0.218839303    -2.836345000
    0.097000    -0.011608025    -0.218839303    -0.011827482    -0.220059220    -2.862161000
    0.098000    -0.011827482    -0.220059220    -0.012048147    -0.221255559    -2.887864000
    0.099000    -0.012048147    -0.221255559    -0.012269997    -0.222428402    -2.913452000
    0.100000    -0.012269997    -0.222428402    -0.012493008    -0.223577834    -2.938926000
    0.101000    -0.012493008    -0.223577834    -0.012717156    -0.224703938    -2.964284000
    0.102000    -0.012717156    -0.224703938    -0.012942419    -0.225806798    -2.989525000
    0.103000    -0.012942419    -0.225806798    -0.013168773    -0.226886499    -3.014648000
    0.104000    -0.013168773    -0.226886499    -0.013396195    -0.227943124    -3.039651000
    0.105000    -0.013396195    -0.227943124    -0.013624662    -0.228976756    -3.064535000
    0.106000    -0.013624662    -0.228976756    -0.013854151    -0.229987481    -3.089298000
    0.107000    -0.013854151    -0.229987481    -0.014084639    -0.230975383    -3.113939000
    0.108000    -0.014084639    -0.230975383    -0.014316104    -0.231940545    -3.138457000
    0.109000    -0.014316104    -0.231940545    -0.014548523    -0.232883051    -3.162851000
    0.110000    -0.014548523    -0.232883051    -0.014781872    -0.233802986    -3.187120000
    0.111000    -0.014781872    -0.233802986    -0.015016130    -0.234700435    -3.211263000
    0.112000    -0.015016130    -0.234700435    -0.015251274    -0.235575481    -3.235280000
    0.113000    -0.015251274    -0.235575481    -0.015487282    -0.236428209    -3.259169000
    0.114000    -0.015487282    -0.236428209    -0.015724132    -0.237258703    -3.282929000
    0.115000    -0.015724132    -0.237258703    -0.015961800    -0.238067048    -3.306559000
    0.116000    -0.015961800    -0.238067048    -0.016200266    -0.238853327    -3.330059000
    0.117000    -0.016200266    -0.238853327    -0.016439508    -0.239617627    -3.353428000
    0.118000    -0.016439508    -0.239617627    -0.016679502    -0.240360031    -3.376664000
    0.119000    -0.016679502    -0.240360031    -0.016920228    -0.241080624    -3.399767000
    0.120000    -0.016920228    -0.241080624    -0.017161663    -0.241779491    -3.422736000
    0.121000    -0.017161663    -0.241779491    -0.017403786    -0.242456715    -3.445569000
    0.122000    -0.017403786    -0.242456715    -0.017646576    -0.243112383    -3.468267000
    0.123000    -0.017646576    -0.243112383    -0.017890010    -0.243746579    -3.490827000
    0.124000    -0.017890010    -0.243746579    -0.018134068    -0.244359388    -3.513250000
    0.125000    -0.018134068    -0.244359388    -0.018378728    -0.244950894    -3.535534000
    0.126000    -0.018378728    -0.244950894    -0.018623969    -0.245521183    -3.557678000
    0.127000    -0.018623969    -0.245521183    -0.018869769    -0.246070339    -3.579682000
    0.128000    -0.018869769    -0.246070339    -0.019116108    -0.246598447    -3.601545000
    0.129000    -0.019116108    -0.246598447    -0.019362964    -0.247105594    -3.623266000
    0.130000    -0.019362964    -0.247105594    -0.019610317    -0.247591862    -3.644843000
    0.131000    -0.019610317    -0.247591862    -0.019858146    -0.248057339    -3.666277000
    0.132000    -0.019858146    -0.248057339    -0.020106429    -0.248502109    -3.687566000
    0.133000    -0.020106429    -0.248502109    -0.020355147    -0.248926256    -3.708709000
    0.134000    -0.020355147    -0.248926256    -0.020604279    -0.249329867    -3.729706000
    0.135000    -0.020604279    -0.249329867    -0.020853804    -0.249713027    -3.750555000
    0.136000    -0.020853804    -0.249713027    -0.021103702    -0.250075820    -3.771257000
    0.137000    -0.021103702    -0.250075820    -0.021353953    -0.250418333    -3.791810000
    0.138000    -0.021353953    -0.250418333    -0.021604535    -0.250740651    -3.812213000
    0.139000    -0.021604535    -0.250740651    -0.021855430    -0.251042858    -3.832465000
    0.140000    -0.021855430    -0.251042858    -0.022106617    -0.251325041    -3.852566000
    0.141000    -0.022106617    -0.251325041    -0.022358076    -0.251587286    -3.872515000
    0.142000    -0.022358076    -0.251587286    -0.022609788    -0.251829676    -3.892312000
    0.143000    -0.022609788    -0.251829676    -0.022861732    -0.252052299    -3.911954000
    0.144000    -0.022861732    -0.252052299    -0.023113888    -0.252255240    -3.931442000
    0.145000    -0.023113888    -0.252255240    -0.023366237    -0.252438584    -3.950775000
    0.146000    -0.023366237    -0.252438584    -0.023618760    -0.252602417    -3.969952000
    0.147000    -0.023618760    -0.252602417    -0.023871437    -0.252746824    -3.988972000
    0.148000    -0.023871437    -0.252746824    -0.024124249    -0.252871892    -4.007835000
    0.149000    -0.024124249    -0.252871892    -0.024377176    -0.252977706    -4.026539000
    0.150000    -0.024377176    -0.252977706    -0.024630199    -0.253064351    -4.045085000
    0.151000    -0.024630199    -0.253064351    -0.024883299    -0.253131914    -4.063471000
    0.152000    -0.024883299    -0.253131914    -0.025136457    -0.253180481    -4.081696000
    0.153000    -0.025136457    -0.253180481    -0.025389654    -0.253210137    -4.099761000
    0.154000    -0.025389654    -0.253210137    -0.025642871    -0.253220967    -4.117663000
    0.155000    -0.025642871    -0.253220967    -0.025896090    -0.253213059    -4.135403000
    0.156000    -0.025896090    -0.253213059    -0.026149291    -0.253186498    -4.152979000
    0.157000    -0.026149291    -0.253186498    -0.026402456    -0.253141369    -4.170392000
    0.158000    -0.026402456    -0.253141369    -0.026655567    -0.253077759    -4.187640000
    0.159000    -0.026655567    -0.253077759    -0.026908605    -0.252995754    -4.204723000
    0.160000    -0.026908605    -0.252995754    -0.027161551    -0.252895439    -4.221640000
    0.161000    -0.027161551    -0.252895439    -0.027414389    -0.252776900    -4.238390000
    0.162000    -0.027414389    -0.252776900    -0.027667098    -0.252640225    -4.254972000
    0.163000    -0.027667098    -0.252640225    -0.027919661    -0.252485498    -4.271387000
    0.164000    -0.027919661    -0.252485498    -0.028172061    -0.252312805    -4.287633000
    0.165000    -0.028172061    -0.252312805    -0.028424279    -0.252122234    -4.303710000
    0.166000    -0.028424279    -0.252122234    -0.028676298    -0.251913869    -4.319617000
    0.167000    -0.028676298    -0.251913869    -0.028928099    -0.251687797    -4.335354000
    0.168000    -0.028928099    -0.251687797    -0.029179665    -0.251444104    -4.350919000
    0.169000    -0.029179665    -0.251444104    -0.029430979    -0.251182876    -4.366312000
    0.170000    -0.029430979    -0.251182876    -0.029682022    -0.250904198    -4.381533000
    0.171000    -0.029682022    -0.250904198    -0.029932779    -0.250608159    -4.396582000
    0.172000    -0.029932779    -0.250608159    -0.030183230    -0.250294842    -4.411456000
    0.173000    -0.030183230    -0.250294842    -0.030433359    -0.249964335    -4.426157000
    0.174000    -0.030433359    -0.249964335    -0.030683150    -0.249616724    -4.440682000
    0.175000    -0.030683150    -0.249616724    -0.030932584    -0.249252094    -4.455033000
    0.176000    -0.030932584    -0.249252094    -0.031181644    -0.248870532    -4.469207000
    0.177000    -0.031181644    -0.248870532    -0.031430315    -0.248472124    -4.483205000
    0.178000    -0.031430315    -0.248472124    -0.031678579    -0.248056957    -4.497026000
    0.179000    -0.031678579    -0.248056957    -0.031926419    -0.247625115    -4.510670000
    0.180000    -0.031926419    -0.247625115    -0.032173819    -0.247176686    -4.524135000
    0.181000    -0.032173819    -0.247176686    -0.032420762    -0.246711756    -4.537422000
    0.182000    -0.032420762    -0.246711756    -0.032667233    -0.246230410    -4.550530000
    0.183000    -0.032667233    -0.246230410    -0.032913213    -0.245732735    -4.563458000
    0.184000    -0.032913213    -0.245732735    -0.033158688    -0.245218817    -4.576206000
    0.185000    -0.033158688    -0.245218817    -0.033403640    -0.244688742    -4.588773000
    0.186000    -0.033403640    -0.244688742    -0.033648054    -0.244142596    -4.601159000
    0.187000    -0.033648054    -0.244142596    -0.033891914    -0.243580466    -4.613364000
    0.188000    -0.033891914    -0.243580466    -0.034135204    -0.243002436    -4.625386000
    0.189000    -0.034135204    -0.243002436    -0.034377908    -0.242408595    -4.637226000
    0.190000    -0.034377908    -0.242408595    -0.034620010    -0.241799027    -4.648882000
    0.191000    -0.034620010    -0.241799027    -0.034861495    -0.241173819    -4.660356000
    0.192000    -0.034861495    -0.241173819    -0.035102346    -0.240533056    -4.671645000
    0.193000    -0.035102346    -0.240533056    -0.035342549    -0.239876825    -4.682749000
    0.194000    -0.035342549    -0.239876825    -0.035582088    -0.239205212    -4.693669000
    0.195000    -0.035582088    -0.239205212    -0.035820948    -0.238518303    -4.704404000
    0.196000    -0.035820948    -0.238518303    -0.036059113    -0.237816184    -4.714953000
    0.197000    -0.036059113    -0.237816184    -0.036296568    -0.237098940    -4.725315000
    0.198000    -0.036296568    -0.237098940    -0.036533298    -0.236366658    -4.735492000
    0.199000    -0.036533298    -0.236366658    -0.036769289    -0.235619424    -4.745481000
    0.200000    -0.036769289    -0.235619424    -0.037004525    -0.234857324    -4.755283000
    0.201000    -0.037004525    -0.234857324    -0.037238991    -0.234080444    -4.764897000
    0.202000    -0.037238991    -0.234080444    -0.037472673    -0.233288869    -4.774323000
    0.203000    -0.037472673    -0.233288869    -0.037705556    -0.232482685    -4.783560000
    0.204000    -0.037705556    -0.232482685    -0.037937625    -0.231661979    -4.792609000
    0.205000    -0.037937625    -0.231661979    -0.038168867    -0.230826836    -4.801468000
    0.206000    -0.038168867    -0.230826836    -0.038399266    -0.229977342    -4.810138000
    0.207000    -0.038399266    -0.229977342    -0.038628808    -0.229113582    -4.818618000
    0.208000    -0.038628808    -0.229113582    -0.038857479    -0.228235644    -4.826908000
    0.209000    -0.038857479    -0.228235644    -0.039085266    -0.227343611    -4.835007000
    0.210000    -0.039085266    -0.227343611    -0.039312153    -0.226437570    -4.842916000
    0.211000    -0.039312153    -0.226437570    -0.039538127    -0.225517608    -4.850633000
    0.212000    -0.039538127    -0.225517608    -0.039763174    -0.224583808    -4.858159000
