Voltage Amplitude:  1  Volts
Voltage Frequency:  2  Hz
Phase Difference:  180.0  Degrees

        time            y(t)            v(t)          y(t+1)          v(t+1)         Voltage
    0.000000     0.000000000     0.000000000     0.000000010     0.000008684     0.000000000
    0.000500     0.000000010     0.000008684     0.000000007     0.000019060    -0.006283000
    0.001000     0.000000007     0.000019060     0.000000003     0.000063056    -0.012566000
    0.001500     0.000000003     0.000063056    -0.000000004    -0.000072223    -0.018848000
    0.002000    -0.000000004    -0.000072223    -0.000000011     0.000021929    -0.025130000
    0.002500    -0.000000011     0.000021929    -0.000000021    -0.000063356    -0.031411000
    0.003000    -0.000000021    -0.000063356    -0.000000033    -0.000123947    -0.037690000
    0.003500    -0.000000033    -0.000123947    -0.000000047     0.000046329    -0.043968000
    0.004000    -0.000000047     0.000046329    -0.000000063     0.000036743    -0.050244000
    0.004500    -0.000000063     0.000036743    -0.000000075     0.000047066    -0.056519000
    0.005000    -0.000000075     0.000047066    -0.000000095    -0.000117101    -0.062791000
    0.005500    -0.000000095    -0.000117101    -0.000000117    -0.000049205    -0.069060000
    0.006000    -0.000000117    -0.000049205    -0.000000139     0.000043862    -0.075327000
    0.006500    -0.000000139     0.000043862    -0.000000167    -0.000038555    -0.081591000
    0.007000    -0.000000167    -0.000038555    -0.000000196    -0.000094971    -0.087851000
    0.007500    -0.000000196    -0.000094971    -0.000000225    -0.000125922    -0.094108000
    0.008000    -0.000000225    -0.000125922    -0.000000256    -0.000130194    -0.100362000
    0.008500    -0.000000256    -0.000130194    -0.000000289    -0.000106565    -0.106611000
    0.009000    -0.000000289    -0.000106565    -0.000000325    -0.000053580    -0.112856000
    0.009500    -0.000000325    -0.000053580    -0.000000362     0.000026429    -0.119097000
    0.010000    -0.000000362     0.000026429    -0.000000399    -0.000071867    -0.125333000
    0.010500    -0.000000399    -0.000071867    -0.000000439    -0.000140368    -0.131564000
    0.011000    -0.000000439    -0.000140368    -0.000000479    -0.000180847    -0.137790000
    0.011500    -0.000000479    -0.000180847    -0.000000523    -0.000190710    -0.144011000
    0.012000    -0.000000523    -0.000190710    -0.000000570    -0.000168500    -0.150226000
    0.012500    -0.000000570    -0.000168500    -0.000000619    -0.000116431    -0.156434000
    0.013000    -0.000000619    -0.000116431    -0.000000663    -0.000039333    -0.162637000
    0.013500    -0.000000663    -0.000039333    -0.000000696    -0.000149870    -0.168833000
    0.014000    -0.000000696    -0.000149870    -0.000000857    -0.000522886    -0.175023000
    0.014500    -0.000000857    -0.000522886    -0.000001246    -0.001047678    -0.181206000
    0.015000    -0.000001246    -0.001047678    -0.000001922    -0.001657773    -0.187381000
    0.015500    -0.000001922    -0.001657773    -0.000002915    -0.002314854    -0.193549000
    0.016000    -0.000002915    -0.002314854    -0.000004244    -0.002997050    -0.199710000
    0.016500    -0.000004244    -0.002997050    -0.000005918    -0.003691908    -0.205863000
    0.017000    -0.000005918    -0.003691908    -0.000007940    -0.004392339    -0.212007000
    0.017500    -0.000007940    -0.004392339    -0.000010314    -0.005094305    -0.218143000
    0.018000    -0.000010314    -0.005094305    -0.000013038    -0.005795504    -0.224271000
    0.018500    -0.000013038    -0.005795504    -0.000016112    -0.006494620    -0.230389000
    0.019000    -0.000016112    -0.006494620    -0.000019536    -0.007190901    -0.236499000
    0.019500    -0.000019536    -0.007190901    -0.000023306    -0.007883911    -0.242599000
    0.020000    -0.000023306    -0.007883911    -0.000027422    -0.008573397    -0.248690000
    0.020500    -0.000027422    -0.008573397    -0.000031882    -0.009259211    -0.254771000
    0.021000    -0.000031882    -0.009259211    -0.000036684    -0.009941261    -0.260842000
    0.021500    -0.000036684    -0.009941261    -0.000041826    -0.010619490    -0.266902000
    0.022000    -0.000041826    -0.010619490    -0.000047307    -0.011293861    -0.272952000
    0.022500    -0.000047307    -0.011293861    -0.000053123    -0.011964345    -0.278991000
    0.023000    -0.000053123    -0.011964345    -0.000059274    -0.012630921    -0.285019000
    0.023500    -0.000059274    -0.012630921    -0.000065757    -0.013293574    -0.291036000
    0.024000    -0.000065757    -0.013293574    -0.000072570    -0.013952286    -0.297042000
    0.024500    -0.000072570    -0.013952286    -0.000079712    -0.014607044    -0.303035000
    0.025000    -0.000079712    -0.014607044    -0.000087180    -0.015257836    -0.309017000
    0.025500    -0.000087180    -0.015257836    -0.000094972    -0.015904647    -0.314987000
    0.026000    -0.000094972    -0.015904647    -0.000103087    -0.016547466    -0.320944000
    0.026500    -0.000103087    -0.016547466    -0.000111522    -0.017186280    -0.326888000
    0.027000    -0.000111522    -0.017186280    -0.000120276    -0.017821078    -0.332820000
    0.027500    -0.000120276    -0.017821078    -0.000129346    -0.018451847    -0.338738000
    0.028000    -0.000129346    -0.018451847    -0.000138730    -0.019078575    -0.344643000
    0.028500    -0.000138730    -0.019078575    -0.000148427    -0.019701251    -0.350534000
    0.029000    -0.000148427    -0.019701251    -0.000158434    -0.020319864    -0.356412000
    0.029500    -0.000158434    -0.020319864    -0.000168749    -0.020934402    -0.362275000
    0.030000    -0.000168749    -0.020934402    -0.000179370    -0.021544853    -0.368125000
    0.030500    -0.000179370    -0.021544853    -0.000190296    -0.022151207    -0.373959000
    0.031000    -0.000190296    -0.022151207    -0.000201524    -0.022753453    -0.379779000
    0.031500    -0.000201524    -0.022753453    -0.000213052    -0.023351579    -0.385584000
    0.032000    -0.000213052    -0.023351579    -0.000224878    -0.023945575    -0.391374000
    0.032500    -0.000224878    -0.023945575    -0.000237000    -0.024535431    -0.397148000
    0.033000    -0.000237000    -0.024535431    -0.000249415    -0.025121135    -0.402906000
    0.033500    -0.000249415    -0.025121135    -0.000262123    -0.025702677    -0.408649000
    0.034000    -0.000262123    -0.025702677    -0.000275120    -0.026280047    -0.414376000
    0.034500    -0.000275120    -0.026280047    -0.000288405    -0.026853235    -0.420086000
    0.035000    -0.000288405    -0.026853235    -0.000301976    -0.027422230    -0.425779000
    0.035500    -0.000301976    -0.027422230    -0.000315830    -0.027987023    -0.431456000
    0.036000    -0.000315830    -0.027987023    -0.000329965    -0.028547604    -0.437116000
    0.036500    -0.000329965    -0.028547604    -0.000344379    -0.029103964    -0.442758000
    0.037000    -0.000344379    -0.029103964    -0.000359071    -0.029656092    -0.448383000
    0.037500    -0.000359071    -0.029656092    -0.000374037    -0.030203979    -0.453990000
    0.038000    -0.000374037    -0.030203979    -0.000389277    -0.030747617    -0.459580000
    0.038500    -0.000389277    -0.030747617    -0.000404787    -0.031286995    -0.465151000
    0.039000    -0.000404787    -0.031286995    -0.000420566    -0.031822104    -0.470704000
    0.039500    -0.000420566    -0.031822104    -0.000436611    -0.032352937    -0.476238000
    0.040000    -0.000436611    -0.032352937    -0.000452921    -0.032879483    -0.481754000
    0.040500    -0.000452921    -0.032879483    -0.000469492    -0.033401735    -0.487250000
    0.041000    -0.000469492    -0.033401735    -0.000486324    -0.033919684    -0.492727000
    0.041500    -0.000486324    -0.033919684    -0.000503414    -0.034433321    -0.498185000
    0.042000    -0.000503414    -0.034433321    -0.000520759    -0.034942638    -0.503623000
    0.042500    -0.000520759    -0.034942638    -0.000538358    -0.035447628    -0.509041000
    0.043000    -0.000538358    -0.035447628    -0.000556209    -0.035948281    -0.514440000
    0.043500    -0.000556209    -0.035948281    -0.000574308    -0.036444590    -0.519817000
    0.044000    -0.000574308    -0.036444590    -0.000592655    -0.036936547    -0.525175000
    0.044500    -0.000592655    -0.036936547    -0.000611247    -0.037424145    -0.530511000
    0.045000    -0.000611247    -0.037424145    -0.000630081    -0.037907377    -0.535827000
    0.045500    -0.000630081    -0.037907377    -0.000649156    -0.038386234    -0.541121000
    0.046000    -0.000649156    -0.038386234    -0.000668469    -0.038860709    -0.546394000
    0.046500    -0.000668469    -0.038860709    -0.000688018    -0.039330797    -0.551646000
    0.047000    -0.000688018    -0.039330797    -0.000707801    -0.039796488    -0.556876000
    0.047500    -0.000707801    -0.039796488    -0.000727816    -0.040257778    -0.562083000
    0.048000    -0.000727816    -0.040257778    -0.000748061    -0.040714658    -0.567269000
    0.048500    -0.000748061    -0.040714658    -0.000768532    -0.041167123    -0.572432000
    0.049000    -0.000768532    -0.041167123    -0.000789229    -0.041615166    -0.577573000
    0.049500    -0.000789229    -0.041615166    -0.000810149    -0.042058781    -0.582690000
    0.050000    -0.000810149    -0.042058781    -0.000831290    -0.042497962    -0.587785000
    0.050500    -0.000831290    -0.042497962    -0.000852648    -0.042932702    -0.592857000
    0.051000    -0.000852648    -0.042932702    -0.000874224    -0.043362995    -0.597905000
    0.051500    -0.000874224    -0.043362995    -0.000896013    -0.043788837    -0.602930000
    0.052000    -0.000896013    -0.043788837    -0.000918014    -0.044210221    -0.607930000
    0.052500    -0.000918014    -0.044210221    -0.000940224    -0.044627141    -0.612907000
    0.053000    -0.000940224    -0.044627141    -0.000962642    -0.045039594    -0.617860000
    0.053500    -0.000962642    -0.045039594    -0.000985265    -0.045447572    -0.622788000
    0.054000    -0.000985265    -0.045447572    -0.001008091    -0.045851072    -0.627691000
    0.054500    -0.001008091    -0.045851072    -0.001031118    -0.046250089    -0.632570000
    0.055000    -0.001031118    -0.046250089    -0.001054343    -0.046644617    -0.637424000
    0.055500    -0.001054343    -0.046644617    -0.001077764    -0.047034651    -0.642253000
    0.056000    -0.001077764    -0.047034651    -0.001101378    -0.047420188    -0.647056000
    0.056500    -0.001101378    -0.047420188    -0.001125185    -0.047801224    -0.651834000
    0.057000    -0.001125185    -0.047801224    -0.001149181    -0.048177753    -0.656586000
    0.057500    -0.001149181    -0.048177753    -0.001173364    -0.048549771    -0.661312000
    0.058000    -0.001173364    -0.048549771    -0.001197732    -0.048917276    -0.666012000
    0.058500    -0.001197732    -0.048917276    -0.001222282    -0.049280262    -0.670686000
    0.059000    -0.001222282    -0.049280262    -0.001247013    -0.049638727    -0.675333000
    0.059500    -0.001247013    -0.049638727    -0.001271922    -0.049992667    -0.679953000
    0.060000    -0.001271922    -0.049992667    -0.001297007    -0.050342077    -0.684547000
    0.060500    -0.001297007    -0.050342077    -0.001322265    -0.050686956    -0.689114000
    0.061000    -0.001322265    -0.050686956    -0.001347695    -0.051027300    -0.693653000
    0.061500    -0.001347695    -0.051027300    -0.001373293    -0.051363106    -0.698165000
    0.062000    -0.001373293    -0.051363106    -0.001399059    -0.051694371    -0.702650000
    0.062500    -0.001399059    -0.051694371    -0.001424988    -0.052021092    -0.707107000
    0.063000    -0.001424988    -0.052021092    -0.001451080    -0.052343268    -0.711536000
    0.063500    -0.001451080    -0.052343268    -0.001477333    -0.052660895    -0.715936000
    0.064000    -0.001477333    -0.052660895    -0.001503742    -0.052973971    -0.720309000
    0.064500    -0.001503742    -0.052973971    -0.001530307    -0.053282494    -0.724653000
    0.065000    -0.001530307    -0.053282494    -0.001557025    -0.053586462    -0.728969000
    0.065500    -0.001557025    -0.053586462    -0.001583894    -0.053885874    -0.733255000
    0.066000    -0.001583894    -0.053885874    -0.001610912    -0.054180727    -0.737513000
    0.066500    -0.001610912    -0.054180727    -0.001638076    -0.054471020    -0.741742000
    0.067000    -0.001638076    -0.054471020    -0.001665384    -0.054756752    -0.745941000
    0.067500    -0.001665384    -0.054756752    -0.001692833    -0.055037921    -0.750111000
    0.068000    -0.001692833    -0.055037921    -0.001720422    -0.055314527    -0.754251000
    0.068500    -0.001720422    -0.055314527    -0.001748148    -0.055586567    -0.758362000
    0.069000    -0.001748148    -0.055586567    -0.001776009    -0.055854042    -0.762443000
    0.069500    -0.001776009    -0.055854042    -0.001804003    -0.056116950    -0.766493000
    0.070000    -0.001804003    -0.056116950    -0.001832127    -0.056375292    -0.770513000
    0.070500    -0.001832127    -0.056375292    -0.001860379    -0.056629066    -0.774503000
    0.071000    -0.001860379    -0.056629066    -0.001888757    -0.056878273    -0.778462000
    0.071500    -0.001888757    -0.056878273    -0.001917258    -0.057122911    -0.782391000
    0.072000    -0.001917258    -0.057122911    -0.001945880    -0.057362982    -0.786288000
    0.072500    -0.001945880    -0.057362982    -0.001974621    -0.057598485    -0.790155000
    0.073000    -0.001974621    -0.057598485    -0.002003479    -0.057829421    -0.793990000
    0.073500    -0.002003479    -0.057829421    -0.002032451    -0.058055790    -0.797794000
    0.074000    -0.002032451    -0.058055790    -0.002061535    -0.058277592    -0.801567000
    0.074500    -0.002061535    -0.058277592    -0.002090729    -0.058494829    -0.805308000
    0.075000    -0.002090729    -0.058494829    -0.002120030    -0.058707501    -0.809017000
    0.075500    -0.002120030    -0.058707501    -0.002149437    -0.058915610    -0.812694000
    0.076000    -0.002149437    -0.058915610    -0.002178946    -0.059119155    -0.816339000
    0.076500    -0.002178946    -0.059119155    -0.002208556    -0.059318139    -0.819952000
    0.077000    -0.002208556    -0.059318139    -0.002238264    -0.059512564    -0.823533000
    0.077500    -0.002238264    -0.059512564    -0.002268069    -0.059702429    -0.827081000
    0.078000    -0.002268069    -0.059702429    -0.002297967    -0.059887739    -0.830596000
    0.078500    -0.002297967    -0.059887739    -0.002327957    -0.060068493    -0.834078000
    0.079000    -0.002327957    -0.060068493    -0.002358036    -0.060244695    -0.837528000
    0.079500    -0.002358036    -0.060244695    -0.002388201    -0.060416345    -0.840945000
    0.080000    -0.002388201    -0.060416345    -0.002418452    -0.060583448    -0.844328000
    0.080500    -0.002418452    -0.060583448    -0.002448785    -0.060746004    -0.847678000
    0.081000    -0.002448785    -0.060746004    -0.002479198    -0.060904017    -0.850994000
    0.081500    -0.002479198    -0.060904017    -0.002509689    -0.061057490    -0.854277000
    0.082000    -0.002509689    -0.061057490    -0.002540256    -0.061206424    -0.857527000
    0.082500    -0.002540256    -0.061206424    -0.002570895    -0.061350824    -0.860742000
    0.083000    -0.002570895    -0.061350824    -0.002601606    -0.061490691    -0.863923000
    0.083500    -0.002601606    -0.061490691    -0.002632386    -0.061626031    -0.867071000
    0.084000    -0.002632386    -0.061626031    -0.002663232    -0.061756845    -0.870184000
    0.084500    -0.002663232    -0.061756845    -0.002694143    -0.061883138    -0.873262000
    0.085000    -0.002694143    -0.061883138    -0.002725115    -0.062004913    -0.876307000
    0.085500    -0.002725115    -0.062004913    -0.002756147    -0.062122174    -0.879316000
    0.086000    -0.002756147    -0.062122174    -0.002787237    -0.062234925    -0.882291000
    0.086500    -0.002787237    -0.062234925    -0.002818382    -0.062343170    -0.885231000
    0.087000    -0.002818382    -0.062343170    -0.002849580    -0.062446914    -0.888136000
    0.087500    -0.002849580    -0.062446914    -0.002880829    -0.062546160    -0.891007000
    0.088000    -0.002880829    -0.062546160    -0.002912126    -0.062640914    -0.893841000
    0.088500    -0.002912126    -0.062640914    -0.002943470    -0.062731179    -0.896641000
    0.089000    -0.002943470    -0.062731179    -0.002974857    -0.062816962    -0.899405000
    0.089500    -0.002974857    -0.062816962    -0.003006286    -0.062898266    -0.902134000
    0.090000    -0.003006286    -0.062898266    -0.003037755    -0.062975098    -0.904827000
    0.090500    -0.003037755    -0.062975098    -0.003069261    -0.063047461    -0.907484000
    0.091000    -0.003069261    -0.063047461    -0.003100802    -0.063115362    -0.910106000
    0.091500    -0.003100802    -0.063115362    -0.003132376    -0.063178806    -0.912692000
    0.092000    -0.003132376    -0.063178806    -0.003163980    -0.063237799    -0.915241000
    0.092500    -0.003163980    -0.063237799    -0.003195613    -0.063292346    -0.917755000
    0.093000    -0.003195613    -0.063292346    -0.003227272    -0.063342454    -0.920232000
    0.093500    -0.003227272    -0.063342454    -0.003258955    -0.063388129    -0.922673000
    0.094000    -0.003258955    -0.063388129    -0.003290660    -0.063429376    -0.925077000
    0.094500    -0.003290660    -0.063429376    -0.003322384    -0.063466202    -0.927445000
    0.095000    -0.003322384    -0.063466202    -0.003354125    -0.063498614    -0.929776000
    0.095500    -0.003354125    -0.063498614    -0.003385882    -0.063526619    -0.932071000
    0.096000    -0.003385882    -0.063526619    -0.003417651    -0.063550222    -0.934329000
    0.096500    -0.003417651    -0.063550222    -0.003449432    -0.063569431    -0.936550000
    0.097000    -0.003449432    -0.063569431    -0.003481220    -0.063584254    -0.938734000
    0.097500    -0.003481220    -0.063584254    -0.003513015    -0.063594696    -0.940881000
    0.098000    -0.003513015    -0.063594696    -0.003544814    -0.063600766    -0.942991000
    0.098500    -0.003544814    -0.063600766    -0.003576615    -0.063602471    -0.945063000
    0.099000    -0.003576615    -0.063602471    -0.003608416    -0.063599819    -0.947098000
    0.099500    -0.003608416    -0.063599819    -0.003640214    -0.063592816    -0.949096000
    0.100000    -0.003640214    -0.063592816    -0.003672008    -0.063581472    -0.951057000
    0.100500    -0.003672008    -0.063581472    -0.003703795    -0.063565795    -0.952979000
    0.101000    -0.003703795    -0.063565795    -0.003735573    -0.063545791    -0.954865000
    0.101500    -0.003735573    -0.063545791    -0.003767340    -0.063521470    -0.956712000
    0.102000    -0.003767340    -0.063521470    -0.003799094    -0.063492840    -0.958522000
    0.102500    -0.003799094    -0.063492840    -0.003830832    -0.063459909    -0.960294000
    0.103000    -0.003830832    -0.063459909    -0.003862553    -0.063422687    -0.962028000
    0.103500    -0.003862553    -0.063422687    -0.003894254    -0.063381182    -0.963724000
    0.104000    -0.003894254    -0.063381182    -0.003925933    -0.063335402    -0.965382000
    0.104500    -0.003925933    -0.063335402    -0.003957588    -0.063285358    -0.967001000
    0.105000    -0.003957588    -0.063285358    -0.003989217    -0.063231058    -0.968583000
    0.105500    -0.003989217    -0.063231058    -0.004020818    -0.063172512    -0.970127000
    0.106000    -0.004020818    -0.063172512    -0.004052389    -0.063109728    -0.971632000
