Voltage Amplitude:  1  Volts
Voltage Frequency:  0.5  Hz
Phase Difference:  90.0  Degrees

        time            y(t)            v(t)          y(t+1)          v(t+1)         Voltage
    0.000000     0.000000000     0.000000000     0.000093778     0.082340809     1.000000000
    0.002000     0.000093778     0.082340809     0.000275304     0.094355584     0.999980000
    0.004000     0.000275304     0.094355584     0.000464417     0.094272644     0.999921000
    0.006000     0.000464417     0.094272644     0.000651677     0.092952828     0.999822000
    0.008000     0.000651677     0.092952828     0.000836139     0.091521104     0.999684000
    0.010000     0.000836139     0.091521104     0.001017737     0.090093605     0.999507000
    0.012000     0.001017737     0.090093605     0.001196496     0.088682105     0.999289000
    0.014000     0.001196496     0.088682105     0.001372449     0.087287584     0.999033000
    0.016000     0.001372449     0.087287584     0.001545630     0.085909908     0.998737000
    0.018000     0.001545630     0.085909908     0.001716072     0.084548835     0.998402000
    0.020000     0.001716072     0.084548835     0.001883809     0.083204112     0.998027000
    0.022000     0.001883809     0.083204112     0.002048872     0.081875489     0.997613000
    0.024000     0.002048872     0.081875489     0.002211295     0.080562722     0.997159000
    0.026000     0.002211295     0.080562722     0.002371108     0.079265570     0.996666000
    0.028000     0.002371108     0.079265570     0.002528342     0.077983794     0.996134000
    0.030000     0.002528342     0.077983794     0.002683027     0.076717162     0.995562000
    0.032000     0.002683027     0.076717162     0.002835195     0.075465442     0.994951000
    0.034000     0.002835195     0.075465442     0.002984874     0.074228410     0.994301000
    0.036000     0.002984874     0.074228410     0.003132094     0.073005843     0.993611000
    0.038000     0.003132094     0.073005843     0.003276883     0.071797521     0.992883000
    0.040000     0.003276883     0.071797521     0.003419269     0.070603229     0.992115000
    0.042000     0.003419269     0.070603229     0.003559281     0.069422756     0.991308000
    0.044000     0.003559281     0.069422756     0.003696946     0.068255892     0.990461000
    0.046000     0.003696946     0.068255892     0.003832290     0.067102433     0.989576000
    0.048000     0.003832290     0.067102433     0.003965341     0.065962176     0.988652000
    0.050000     0.003965341     0.065962176     0.004096125     0.064834923     0.987688000
    0.052000     0.004096125     0.064834923     0.004224667     0.063720478     0.986686000
    0.054000     0.004224667     0.063720478     0.004350993     0.062618650     0.985645000
    0.056000     0.004350993     0.062618650     0.004475128     0.061529249     0.984564000
    0.058000     0.004475128     0.061529249     0.004597097     0.060452089     0.983445000
    0.060000     0.004597097     0.060452089     0.004716923     0.059386987     0.982287000
    0.062000     0.004716923     0.059386987     0.004834631     0.058333764     0.981091000
    0.064000     0.004834631     0.058333764     0.004950245     0.057292241     0.979855000
    0.066000     0.004950245     0.057292241     0.005063787     0.056262245     0.978581000
    0.068000     0.005063787     0.056262245     0.005175281     0.055243604     0.977268000
    0.070000     0.005175281     0.055243604     0.005284749     0.054236150     0.975917000
    0.072000     0.005284749     0.054236150     0.005392213     0.053239717     0.974527000
    0.074000     0.005392213     0.053239717     0.005497695     0.052254141     0.973099000
    0.076000     0.005497695     0.052254141     0.005601217     0.051279263     0.971632000
    0.078000     0.005601217     0.051279263     0.005702800     0.050314924     0.970127000
    0.080000     0.005702800     0.050314924     0.005802465     0.049360969     0.968583000
    0.082000     0.005802465     0.049360969     0.005900232     0.048417246     0.967001000
    0.084000     0.005900232     0.048417246     0.005996121     0.047483604     0.965382000
    0.086000     0.005996121     0.047483604     0.006090154     0.046559895     0.963724000
    0.088000     0.006090154     0.046559895     0.006182349     0.045645975     0.962028000
    0.090000     0.006182349     0.045645975     0.006272726     0.044741700     0.960294000
    0.092000     0.006272726     0.044741700     0.006361304     0.043846929     0.958522000
    0.094000     0.006361304     0.043846929     0.006448102     0.042961525     0.956712000
    0.096000     0.006448102     0.042961525     0.006533139     0.042085352     0.954865000
    0.098000     0.006533139     0.042085352     0.006616432     0.041218275     0.952979000
    0.100000     0.006616432     0.041218275     0.006698001     0.040360164     0.951057000
    0.102000     0.006698001     0.040360164     0.006777862     0.039510889     0.949096000
    0.104000     0.006777862     0.039510889     0.006856033     0.038670323     0.947098000
    0.106000     0.006856033     0.038670323     0.006932532     0.037838341     0.945063000
    0.108000     0.006932532     0.037838341     0.007007376     0.037014819     0.942991000
    0.110000     0.007007376     0.037014819     0.007080581     0.036199638     0.940881000
    0.112000     0.007080581     0.036199638     0.007152164     0.035392678     0.938734000
    0.114000     0.007152164     0.035392678     0.007222141     0.034593822     0.936550000
    0.116000     0.007222141     0.034593822     0.007290528     0.033802955     0.934329000
    0.118000     0.007290528     0.033802955     0.007357342     0.033019964     0.932071000
    0.120000     0.007357342     0.033019964     0.007422598     0.032244739     0.929776000
    0.122000     0.007422598     0.032244739     0.007486311     0.031477169     0.927445000
    0.124000     0.007486311     0.031477169     0.007548496     0.030717148     0.925077000
    0.126000     0.007548496     0.030717148     0.007609169     0.029964570     0.922673000
    0.128000     0.007609169     0.029964570     0.007668344     0.029219331     0.920232000
    0.130000     0.007668344     0.029219331     0.007726036     0.028481328     0.917755000
    0.132000     0.007726036     0.028481328     0.007782260     0.027750462     0.915241000
    0.134000     0.007782260     0.027750462     0.007837028     0.027026634     0.912692000
    0.136000     0.007837028     0.027026634     0.007890356     0.026309746     0.910106000
    0.138000     0.007890356     0.026309746     0.007942258     0.025599704     0.907484000
    0.140000     0.007942258     0.025599704     0.007992746     0.024896414     0.904827000
    0.142000     0.007992746     0.024896414     0.008041834     0.024199784     0.902134000
    0.144000     0.008041834     0.024199784     0.008089535     0.023509722     0.899405000
    0.146000     0.008089535     0.023509722     0.008135863     0.022826141     0.896641000
    0.148000     0.008135863     0.022826141     0.008180831     0.022148952     0.893841000
    0.150000     0.008180831     0.022148952     0.008224450     0.021478070     0.891007000
    0.152000     0.008224450     0.021478070     0.008266734     0.020813410     0.888136000
    0.154000     0.008266734     0.020813410     0.008307694     0.020154889     0.885231000
    0.156000     0.008307694     0.020154889     0.008347344     0.019502426     0.882291000
    0.158000     0.008347344     0.019502426     0.008385695     0.018855939     0.879316000
    0.160000     0.008385695     0.018855939     0.008422759     0.018215351     0.876307000
    0.162000     0.008422759     0.018215351     0.008458548     0.017580583     0.873262000
    0.164000     0.008458548     0.017580583     0.008493072     0.016951561     0.870184000
    0.166000     0.008493072     0.016951561     0.008526345     0.016328208     0.867071000
    0.168000     0.008526345     0.016328208     0.008558377     0.015710451     0.863923000
    0.170000     0.008558377     0.015710451     0.008589178     0.015098219     0.860742000
    0.172000     0.008589178     0.015098219     0.008618761     0.014491440     0.857527000
    0.174000     0.008618761     0.014491440     0.008647135     0.013890044     0.854277000
    0.176000     0.008647135     0.013890044     0.008674313     0.013293963     0.850994000
    0.178000     0.008674313     0.013293963     0.008700303     0.012703130     0.847678000
    0.180000     0.008700303     0.012703130     0.008725117     0.012117478     0.844328000
    0.182000     0.008725117     0.012117478     0.008748765     0.011536943     0.840945000
    0.184000     0.008748765     0.011536943     0.008771256     0.010961460     0.837528000
    0.186000     0.008771256     0.010961460     0.008792602     0.010390967     0.834078000
    0.188000     0.008792602     0.010390967     0.008812812     0.009825403     0.830596000
    0.190000     0.008812812     0.009825403     0.008831896     0.009264706     0.827081000
    0.192000     0.008831896     0.009264706     0.008849863     0.008708818     0.823533000
    0.194000     0.008849863     0.008708818     0.008866723     0.008157680     0.819952000
    0.196000     0.008866723     0.008157680     0.008882486     0.007611235     0.816339000
    0.198000     0.008882486     0.007611235     0.008897160     0.007069426     0.812694000
    0.200000     0.008897160     0.007069426     0.008910756     0.006532199     0.809017000
    0.202000     0.008910756     0.006532199     0.008923282     0.005999498     0.805308000
    0.204000     0.008923282     0.005999498     0.008934746     0.005471271     0.801567000
    0.206000     0.008934746     0.005471271     0.008945159     0.004947466     0.797794000
    0.208000     0.008945159     0.004947466     0.008954529     0.004428030     0.793990000
    0.210000     0.008954529     0.004428030     0.008962864     0.003912914     0.790155000
    0.212000     0.008962864     0.003912914     0.008970173     0.003402067     0.786288000
    0.214000     0.008970173     0.003402067     0.008976465     0.002895442     0.782391000
    0.216000     0.008976465     0.002895442     0.008981747     0.002392990     0.778462000
    0.218000     0.008981747     0.002392990     0.008986029     0.001894664     0.774503000
    0.220000     0.008986029     0.001894664     0.008989319     0.001400419     0.770513000
    0.222000     0.008989319     0.001400419     0.008991624     0.000910209     0.766493000
    0.224000     0.008991624     0.000910209     0.008992953     0.000423991     0.762443000
    0.226000     0.008992953     0.000423991     0.008993491     0.000613463     0.758362000
    0.228000     0.008993491     0.000613463     0.008994212     0.000416295     0.754251000
    0.230000     0.008994212     0.000416295     0.008994889     0.000054042     0.750111000
    0.232000     0.008994889     0.000054042     0.008995624     0.000269314     0.745941000
    0.234000     0.008995624     0.000269314     0.008996333     0.000286339     0.741742000
    0.236000     0.008996333     0.000286339     0.008997024     0.000096758     0.737513000
    0.238000     0.008997024     0.000096758     0.008997701     0.000524181     0.733255000
    0.240000     0.008997701     0.000524181     0.008998333    -0.000075540     0.728969000
    0.242000     0.008998333    -0.000075540     0.008998999     0.000714572     0.724653000
    0.244000     0.008998999     0.000714572     0.008999657     0.000428082     0.720309000
    0.246000     0.008999657     0.000428082     0.009000238    -0.000041529     0.715936000
    0.248000     0.009000238    -0.000041529     0.009000806     0.000072353     0.711536000
    0.250000     0.009000806     0.000072353     0.009001350    -0.000059835     0.707107000
    0.252000     0.009001350    -0.000059835     0.009001875     0.000381028     0.702650000
    0.254000     0.009001875     0.000381028     0.009002382     0.000553642     0.698165000
    0.256000     0.009002382     0.000553642     0.009002900     0.000425754     0.693653000
    0.258000     0.009002900     0.000425754     0.009003364     0.000054473     0.689114000
    0.260000     0.009003364     0.000054473     0.009003813     0.000228004     0.684547000
    0.262000     0.009003813     0.000228004     0.009004237     0.000111944     0.679953000
    0.264000     0.009004237     0.000111944     0.009004632     0.000543749     0.675333000
    0.266000     0.009004632     0.000543749     0.009004990    -0.000143346     0.670686000
    0.268000     0.009004990    -0.000143346     0.009005350     0.000504795     0.666012000
    0.270000     0.009005350     0.000504795     0.009005679     0.000017574     0.661312000
    0.272000     0.009005679     0.000017574     0.009006003     0.000025275     0.656586000
    0.274000     0.009006003     0.000025275     0.009006329     0.000513236     0.651834000
    0.276000     0.009006329     0.000513236     0.009006636    -0.000171907     0.647056000
    0.278000     0.009006636    -0.000171907     0.009006883     0.000513831     0.642253000
    0.280000     0.009006883     0.000513831     0.009007122     0.000008471     0.637424000
    0.282000     0.009007122     0.000008471     0.009007305     0.000022259     0.632570000
    0.284000     0.009007305     0.000022259     0.009007525     0.000450476     0.627691000
    0.286000     0.009007525     0.000450476     0.009007661    -0.000253979     0.622788000
    0.288000     0.009007661    -0.000253979     0.009007806     0.000310009     0.617860000
    0.290000     0.009007806     0.000310009     0.009007909    -0.000311612     0.612907000
    0.292000     0.009007909    -0.000311612     0.009007984     0.000359826     0.607930000
    0.294000     0.009007984     0.000359826     0.009008059    -0.000210238     0.602930000
    0.296000     0.009008059    -0.000210238     0.009008149    -0.000373128     0.597905000
    0.298000     0.009008149    -0.000373128     0.009008281    -0.000170586     0.592857000
    0.300000     0.009008281    -0.000170586     0.009008204    -0.000175825     0.587785000
    0.302000     0.009008204    -0.000175825     0.009008148     0.000203599     0.582690000
    0.304000     0.009008148     0.000203599     0.009008070     0.000170188     0.577573000
    0.306000     0.009008070     0.000170188     0.009007965    -0.000276022     0.572432000
    0.308000     0.009007965    -0.000276022     0.009007833    -0.000303935     0.567269000
    0.310000     0.009007833    -0.000303935     0.009007695     0.000053138     0.562083000
    0.312000     0.009007695     0.000053138     0.009007567    -0.000056674     0.556876000
    0.314000     0.009007567    -0.000056674     0.009007369     0.000281305     0.551646000
    0.316000     0.009007369     0.000281305     0.009007145     0.000176108     0.546394000
    0.318000     0.009007145     0.000176108     0.009006895    -0.000370330     0.541121000
    0.320000     0.009006895    -0.000370330     0.009006743     0.000170877     0.535827000
    0.322000     0.009006743     0.000170877     0.009006420    -0.000430103     0.530511000
    0.324000     0.009006420    -0.000430103     0.009006103     0.000147643     0.525175000
    0.326000     0.009006103     0.000147643     0.009005735    -0.000550447     0.519817000
    0.328000     0.009005735    -0.000550447     0.009005364    -0.000073512     0.514440000
    0.330000     0.009005364    -0.000073512     0.009004968    -0.000068814     0.509041000
    0.332000     0.009004968    -0.000068814     0.009004547    -0.000543045     0.503623000
    0.334000     0.009004547    -0.000543045     0.009004116     0.000146844     0.498185000
    0.336000     0.009004116     0.000146844     0.009003625    -0.000450591     0.492727000
    0.338000     0.009003625    -0.000450591     0.009003122     0.000115214     0.487250000
    0.340000     0.009003122     0.000115214     0.009002579    -0.000633898     0.481754000
    0.342000     0.009002579    -0.000633898     0.009002058    -0.000272860     0.476238000
    0.344000     0.009002058    -0.000272860     0.009001502    -0.000403513     0.470704000
    0.346000     0.009001502    -0.000403513     0.009000886    -0.000177347     0.465151000
    0.348000     0.009000886    -0.000177347     0.009000273    -0.000492691     0.459580000
    0.350000     0.009000273    -0.000492691     0.008999602    -0.000464074     0.453990000
    0.352000     0.008999602    -0.000464074     0.008998937    -0.000154486     0.448383000
    0.354000     0.008998937    -0.000154486     0.008998248    -0.000377508     0.442758000
    0.356000     0.008998248    -0.000377508     0.008997549    -0.000314644     0.437116000
    0.358000     0.008997549    -0.000314644     0.008996897    -0.000016536     0.431456000
    0.360000     0.008996897    -0.000016536     0.008996151    -0.000204338     0.425779000
    0.362000     0.008996151    -0.000204338     0.008995678    -0.000422656     0.420086000
    0.364000     0.008995678    -0.000422656     0.008994226    -0.001038806     0.414376000
    0.366000     0.008994226    -0.001038806     0.008991492    -0.001688716     0.408649000
    0.368000     0.008991492    -0.001688716     0.008987461    -0.002334830     0.402906000
    0.370000     0.008987461    -0.002334830     0.008982145    -0.002973376     0.397148000
    0.372000     0.008982145    -0.002973376     0.008975560    -0.003604054     0.391374000
    0.374000     0.008975560    -0.003604054     0.008967721    -0.004226917     0.385584000
    0.376000     0.008967721    -0.004226917     0.008958645    -0.004842055     0.379779000
    0.378000     0.008958645    -0.004842055     0.008948346    -0.005449561     0.373959000
    0.380000     0.008948346    -0.005449561     0.008936840    -0.006049527     0.368125000
    0.382000     0.008936840    -0.006049527     0.008924141    -0.006642040     0.362275000
    0.384000     0.008924141    -0.006642040     0.008910265    -0.007227190     0.356412000
    0.386000     0.008910265    -0.007227190     0.008895225    -0.007805063     0.350534000
    0.388000     0.008895225    -0.007805063     0.008879038    -0.008375745     0.344643000
    0.390000     0.008879038    -0.008375745     0.008861716    -0.008939320     0.338738000
    0.392000     0.008861716    -0.008939320     0.008843274    -0.009495869     0.332820000
    0.394000     0.008843274    -0.009495869     0.008823726    -0.010045475     0.326888000
    0.396000     0.008823726    -0.010045475     0.008803086    -0.010588217     0.320944000
    0.398000     0.008803086    -0.010588217     0.008781367    -0.011124173     0.314987000
    0.400000     0.008781367    -0.011124173     0.008758583    -0.011653422     0.309017000
    0.402000     0.008758583    -0.011653422     0.008734747    -0.012176038     0.303035000
    0.404000     0.008734747    -0.012176038     0.008709873    -0.012692098     0.297042000
    0.406000     0.008709873    -0.012692098     0.008683973    -0.013201674     0.291036000
    0.408000     0.008683973    -0.013201674     0.008657060    -0.013704839     0.285019000
    0.410000     0.008657060    -0.013704839     0.008629147    -0.014201664     0.278991000
    0.412000     0.008629147    -0.014201664     0.008600248    -0.014692220     0.272952000
    0.414000     0.008600248    -0.014692220     0.008570373    -0.015176575     0.266902000
    0.416000     0.008570373    -0.015176575     0.008539536    -0.015654796     0.260842000
    0.418000     0.008539536    -0.015654796     0.008507748    -0.016126951     0.254771000
    0.420000     0.008507748    -0.016126951     0.008475023    -0.016593106     0.248690000
    0.422000     0.008475023    -0.016593106     0.008441371    -0.017053324     0.242599000
    0.424000     0.008441371    -0.017053324     0.008406804    -0.017507670     0.236499000
