Voltage Amplitude:  1  Volts
Voltage Frequency:  0.5  Hz
Phase Difference:  180.0  Degrees

        time            y(t)            v(t)          y(t+1)          v(t+1)         Voltage
    0.000000     0.000000000     0.000000000     0.000000051    -0.000250134     0.000000000
    0.002000     0.000000051    -0.000250134    -0.000000021     0.000160284    -0.006283000
    0.004000    -0.000000021     0.000160284    -0.000000105    -0.000156460    -0.012566000
    0.006000    -0.000000105    -0.000156460    -0.000000196    -0.000368572    -0.018848000
    0.008000    -0.000000196    -0.000368572    -0.000000309    -0.000466651    -0.025130000
    0.010000    -0.000000309    -0.000466651    -0.000000483    -0.000402736    -0.031411000
    0.012000    -0.000000483    -0.000402736    -0.000000662    -0.000234333    -0.037690000
    0.014000    -0.000000662    -0.000234333    -0.000000892     0.000079717    -0.043968000
    0.016000    -0.000000892     0.000079717    -0.000001123    -0.000331374    -0.050244000
    0.018000    -0.000001123    -0.000331374    -0.000001382     0.000212924    -0.056519000
    0.020000    -0.000001382     0.000212924    -0.000001679     0.000070747    -0.062791000
    0.022000    -0.000001679     0.000070747    -0.000001987     0.000040181    -0.069060000
    0.024000    -0.000001987     0.000040181    -0.000002373     0.000196506    -0.075327000
    0.026000    -0.000002373     0.000196506    -0.000002779    -0.000355114    -0.081591000
    0.028000    -0.000002779    -0.000355114    -0.000003206     0.000060440    -0.087851000
    0.030000    -0.000003206     0.000060440    -0.000003664    -0.000221741    -0.094108000
    0.032000    -0.000003664    -0.000221741    -0.000004187    -0.000320664    -0.100362000
    0.034000    -0.000004187    -0.000320664    -0.000004705    -0.000310549    -0.106611000
    0.036000    -0.000004705    -0.000310549    -0.000005212    -0.000199878    -0.112856000
    0.038000    -0.000005212    -0.000199878    -0.000005786     0.000098998    -0.119097000
    0.040000    -0.000005786     0.000098998    -0.000006388    -0.000294332    -0.125333000
    0.042000    -0.000006388    -0.000294332    -0.000007029    -0.000521625    -0.131564000
    0.044000    -0.000007029    -0.000521625    -0.000007703    -0.000594260    -0.137790000
    0.046000    -0.000007703    -0.000594260    -0.000008400    -0.000518652    -0.144011000
    0.048000    -0.000008400    -0.000518652    -0.000009122    -0.000291714    -0.150226000
    0.050000    -0.000009122    -0.000291714    -0.000009767    -0.000003505    -0.156434000
    0.052000    -0.000009767    -0.000003505    -0.000010545    -0.000304686    -0.162637000
    0.054000    -0.000010545    -0.000304686    -0.000011242    -0.000555329    -0.168833000
    0.056000    -0.000011242    -0.000555329    -0.000013014    -0.001224766    -0.175023000
    0.058000    -0.000013014    -0.001224766    -0.000016172    -0.001926782    -0.181206000
    0.060000    -0.000016172    -0.001926782    -0.000020730    -0.002621593    -0.187381000
    0.062000    -0.000020730    -0.002621593    -0.000026665    -0.003305256    -0.193549000
    0.064000    -0.000026665    -0.003305256    -0.000033957    -0.003977499    -0.199710000
    0.066000    -0.000033957    -0.003977499    -0.000042581    -0.004638427    -0.205863000
    0.068000    -0.000042581    -0.004638427    -0.000052516    -0.005288180    -0.212007000
    0.070000    -0.000052516    -0.005288180    -0.000063739    -0.005926900    -0.218143000
    0.072000    -0.000063739    -0.005926900    -0.000076229    -0.006554729    -0.224271000
    0.074000    -0.000076229    -0.006554729    -0.000089963    -0.007171805    -0.230389000
    0.076000    -0.000089963    -0.007171805    -0.000104921    -0.007778264    -0.236499000
    0.078000    -0.000104921    -0.007778264    -0.000121081    -0.008374241    -0.242599000
    0.080000    -0.000121081    -0.008374241    -0.000138423    -0.008959868    -0.248690000
    0.082000    -0.000138423    -0.008959868    -0.000156926    -0.009535276    -0.254771000
    0.084000    -0.000156926    -0.009535276    -0.000176569    -0.010100593    -0.260842000
    0.086000    -0.000176569    -0.010100593    -0.000197333    -0.010655946    -0.266902000
    0.088000    -0.000197333    -0.010655946    -0.000219197    -0.011201460    -0.272952000
    0.090000    -0.000219197    -0.011201460    -0.000242143    -0.011737258    -0.278991000
    0.092000    -0.000242143    -0.011737258    -0.000266150    -0.012263461    -0.285019000
    0.094000    -0.000266150    -0.012263461    -0.000291201    -0.012780188    -0.291036000
    0.096000    -0.000291201    -0.012780188    -0.000317275    -0.013287558    -0.297042000
    0.098000    -0.000317275    -0.013287558    -0.000344355    -0.013785685    -0.303035000
    0.100000    -0.000344355    -0.013785685    -0.000372422    -0.014274684    -0.309017000
    0.102000    -0.000372422    -0.014274684    -0.000401457    -0.014754667    -0.314987000
    0.104000    -0.000401457    -0.014754667    -0.000431444    -0.015225746    -0.320944000
    0.106000    -0.000431444    -0.015225746    -0.000462364    -0.015688029    -0.326888000
    0.108000    -0.000462364    -0.015688029    -0.000494199    -0.016141625    -0.332820000
    0.110000    -0.000494199    -0.016141625    -0.000526934    -0.016586638    -0.338738000
    0.112000    -0.000526934    -0.016586638    -0.000560549    -0.017023174    -0.344643000
    0.114000    -0.000560549    -0.017023174    -0.000595029    -0.017451336    -0.350534000
    0.116000    -0.000595029    -0.017451336    -0.000630357    -0.017871225    -0.356412000
    0.118000    -0.000630357    -0.017871225    -0.000666517    -0.018282941    -0.362275000
    0.120000    -0.000666517    -0.018282941    -0.000703492    -0.018686583    -0.368125000
    0.122000    -0.000703492    -0.018686583    -0.000741266    -0.019082248    -0.373959000
    0.124000    -0.000741266    -0.019082248    -0.000779824    -0.019470031    -0.379779000
    0.126000    -0.000779824    -0.019470031    -0.000819149    -0.019850027    -0.385584000
    0.128000    -0.000819149    -0.019850027    -0.000859226    -0.020222329    -0.391374000
    0.130000    -0.000859226    -0.020222329    -0.000900040    -0.020587028    -0.397148000
    0.132000    -0.000900040    -0.020587028    -0.000941576    -0.020944215    -0.402906000
    0.134000    -0.000941576    -0.020944215    -0.000983819    -0.021293979    -0.408649000
    0.136000    -0.000983819    -0.021293979    -0.001026754    -0.021636407    -0.414376000
    0.138000    -0.001026754    -0.021636407    -0.001070367    -0.021971587    -0.420086000
    0.140000    -0.001070367    -0.021971587    -0.001114643    -0.022299603    -0.425779000
    0.142000    -0.001114643    -0.022299603    -0.001159567    -0.022620539    -0.431456000
    0.144000    -0.001159567    -0.022620539    -0.001205126    -0.022934478    -0.437116000
    0.146000    -0.001205126    -0.022934478    -0.001251307    -0.023241502    -0.442758000
    0.148000    -0.001251307    -0.023241502    -0.001298094    -0.023541691    -0.448383000
    0.150000    -0.001298094    -0.023541691    -0.001345475    -0.023835126    -0.453990000
    0.152000    -0.001345475    -0.023835126    -0.001393436    -0.024121883    -0.459580000
    0.154000    -0.001393436    -0.024121883    -0.001441964    -0.024402040    -0.465151000
    0.156000    -0.001441964    -0.024402040    -0.001491045    -0.024675673    -0.470704000
    0.158000    -0.001491045    -0.024675673    -0.001540667    -0.024942858    -0.476238000
    0.160000    -0.001540667    -0.024942858    -0.001590818    -0.025203667    -0.481754000
    0.162000    -0.001590818    -0.025203667    -0.001641483    -0.025458175    -0.487250000
    0.164000    -0.001641483    -0.025458175    -0.001692651    -0.025706453    -0.492727000
    0.166000    -0.001692651    -0.025706453    -0.001744310    -0.025948571    -0.498185000
    0.168000    -0.001744310    -0.025948571    -0.001796446    -0.026184600    -0.503623000
    0.170000    -0.001796446    -0.026184600    -0.001849049    -0.026414608    -0.509041000
    0.172000    -0.001849049    -0.026414608    -0.001902105    -0.026638665    -0.514440000
    0.174000    -0.001902105    -0.026638665    -0.001955604    -0.026856835    -0.519817000
    0.176000    -0.001955604    -0.026856835    -0.002009533    -0.027069187    -0.525175000
    0.178000    -0.002009533    -0.027069187    -0.002063881    -0.027275785    -0.530511000
    0.180000    -0.002063881    -0.027275785    -0.002118636    -0.027476693    -0.535827000
    0.182000    -0.002118636    -0.027476693    -0.002173788    -0.027671974    -0.541121000
    0.184000    -0.002173788    -0.027671974    -0.002229324    -0.027861692    -0.546394000
    0.186000    -0.002229324    -0.027861692    -0.002285235    -0.028045908    -0.551646000
    0.188000    -0.002285235    -0.028045908    -0.002341508    -0.028224683    -0.556876000
    0.190000    -0.002341508    -0.028224683    -0.002398133    -0.028398077    -0.562083000
    0.192000    -0.002398133    -0.028398077    -0.002455100    -0.028566149    -0.567269000
    0.194000    -0.002455100    -0.028566149    -0.002512398    -0.028728958    -0.572432000
    0.196000    -0.002512398    -0.028728958    -0.002570016    -0.028886561    -0.577573000
    0.198000    -0.002570016    -0.028886561    -0.002627944    -0.029039016    -0.582690000
    0.200000    -0.002627944    -0.029039016    -0.002686171    -0.029186378    -0.587785000
    0.202000    -0.002686171    -0.029186378    -0.002744689    -0.029328703    -0.592857000
    0.204000    -0.002744689    -0.029328703    -0.002803486    -0.029466046    -0.597905000
    0.206000    -0.002803486    -0.029466046    -0.002862552    -0.029598460    -0.602930000
    0.208000    -0.002862552    -0.029598460    -0.002921879    -0.029725999    -0.607930000
    0.210000    -0.002921879    -0.029725999    -0.002981456    -0.029848715    -0.612907000
    0.212000    -0.002981456    -0.029848715    -0.003041273    -0.029966660    -0.617860000
    0.214000    -0.003041273    -0.029966660    -0.003101321    -0.030079885    -0.622788000
    0.216000    -0.003101321    -0.030079885    -0.003161592    -0.030188442    -0.627691000
    0.218000    -0.003161592    -0.030188442    -0.003222074    -0.030292379    -0.632570000
    0.220000    -0.003222074    -0.030292379    -0.003282760    -0.030391746    -0.637424000
    0.222000    -0.003282760    -0.030391746    -0.003343640    -0.030486591    -0.642253000
    0.224000    -0.003343640    -0.030486591    -0.003404705    -0.030576963    -0.647056000
    0.226000    -0.003404705    -0.030576963    -0.003465947    -0.030662908    -0.651834000
    0.228000    -0.003465947    -0.030662908    -0.003527356    -0.030744475    -0.656586000
    0.230000    -0.003527356    -0.030744475    -0.003588923    -0.030821708    -0.661312000
    0.232000    -0.003588923    -0.030821708    -0.003650641    -0.030894653    -0.666012000
    0.234000    -0.003650641    -0.030894653    -0.003712501    -0.030963355    -0.670686000
    0.236000    -0.003712501    -0.030963355    -0.003774493    -0.031027860    -0.675333000
    0.238000    -0.003774493    -0.031027860    -0.003836611    -0.031088209    -0.679953000
    0.240000    -0.003836611    -0.031088209    -0.003898844    -0.031144448    -0.684547000
    0.242000    -0.003898844    -0.031144448    -0.003961187    -0.031196619    -0.689114000
    0.244000    -0.003961187    -0.031196619    -0.004023629    -0.031244763    -0.693653000
    0.246000    -0.004023629    -0.031244763    -0.004086164    -0.031288924    -0.698165000
    0.248000    -0.004086164    -0.031288924    -0.004148783    -0.031329141    -0.702650000
    0.250000    -0.004148783    -0.031329141    -0.004211479    -0.031365457    -0.707107000
    0.252000    -0.004211479    -0.031365457    -0.004274243    -0.031397910    -0.711536000
    0.254000    -0.004274243    -0.031397910    -0.004337068    -0.031426541    -0.715936000
    0.256000    -0.004337068    -0.031426541    -0.004399947    -0.031451389    -0.720309000
    0.258000    -0.004399947    -0.031451389    -0.004462872    -0.031472494    -0.724653000
    0.260000    -0.004462872    -0.031472494    -0.004525835    -0.031489892    -0.728969000
    0.262000    -0.004525835    -0.031489892    -0.004588829    -0.031503623    -0.733255000
    0.264000    -0.004588829    -0.031503623    -0.004651847    -0.031513724    -0.737513000
    0.266000    -0.004651847    -0.031513724    -0.004714882    -0.031520231    -0.741742000
    0.268000    -0.004714882    -0.031520231    -0.004777926    -0.031523182    -0.745941000
    0.270000    -0.004777926    -0.031523182    -0.004840972    -0.031522612    -0.750111000
    0.272000    -0.004840972    -0.031522612    -0.004904014    -0.031518557    -0.754251000
    0.274000    -0.004904014    -0.031518557    -0.004967044    -0.031511053    -0.758362000
    0.276000    -0.004967044    -0.031511053    -0.005030056    -0.031500135    -0.762443000
    0.278000    -0.005030056    -0.031500135    -0.005093042    -0.031485836    -0.766493000
    0.280000    -0.005093042    -0.031485836    -0.005155997    -0.031468192    -0.770513000
    0.282000    -0.005155997    -0.031468192    -0.005218912    -0.031447236    -0.774503000
    0.284000    -0.005218912    -0.031447236    -0.005281783    -0.031423001    -0.778462000
    0.286000    -0.005281783    -0.031423001    -0.005344602    -0.031395521    -0.782391000
    0.288000    -0.005344602    -0.031395521    -0.005407362    -0.031364828    -0.786288000
    0.290000    -0.005407362    -0.031364828    -0.005470058    -0.031330954    -0.790155000
    0.292000    -0.005470058    -0.031330954    -0.005532683    -0.031293932    -0.793990000
    0.294000    -0.005532683    -0.031293932    -0.005595231    -0.031253792    -0.797794000
    0.296000    -0.005595231    -0.031253792    -0.005657696    -0.031210567    -0.801567000
    0.298000    -0.005657696    -0.031210567    -0.005720071    -0.031164287    -0.805308000
    0.300000    -0.005720071    -0.031164287    -0.005782350    -0.031114983    -0.809017000
    0.302000    -0.005782350    -0.031114983    -0.005844527    -0.031062685    -0.812694000
    0.304000    -0.005844527    -0.031062685    -0.005906598    -0.031007422    -0.816339000
    0.306000    -0.005906598    -0.031007422    -0.005968554    -0.030949226    -0.819952000
    0.308000    -0.005968554    -0.030949226    -0.006030391    -0.030888124    -0.823533000
    0.310000    -0.006030391    -0.030888124    -0.006092103    -0.030824147    -0.827081000
    0.312000    -0.006092103    -0.030824147    -0.006153685    -0.030757322    -0.830596000
    0.314000    -0.006153685    -0.030757322    -0.006215129    -0.030687678    -0.834078000
    0.316000    -0.006215129    -0.030687678    -0.006276432    -0.030615244    -0.837528000
    0.318000    -0.006276432    -0.030615244    -0.006337587    -0.030540047    -0.840945000
    0.320000    -0.006337587    -0.030540047    -0.006398589    -0.030462115    -0.844328000
    0.322000    -0.006398589    -0.030462115    -0.006459432    -0.030381476    -0.847678000
    0.324000    -0.006459432    -0.030381476    -0.006520111    -0.030298155    -0.850994000
    0.326000    -0.006520111    -0.030298155    -0.006580621    -0.030212180    -0.854277000
    0.328000    -0.006580621    -0.030212180    -0.006640957    -0.030123578    -0.857527000
    0.330000    -0.006640957    -0.030123578    -0.006701112    -0.030032375    -0.860742000
    0.332000    -0.006701112    -0.030032375    -0.006761083    -0.029938597    -0.863923000
    0.334000    -0.006761083    -0.029938597    -0.006820863    -0.029842270    -0.867071000
    0.336000    -0.006820863    -0.029842270    -0.006880448    -0.029743418    -0.870184000
    0.338000    -0.006880448    -0.029743418    -0.006939833    -0.029642068    -0.873262000
    0.340000    -0.006939833    -0.029642068    -0.006999013    -0.029538245    -0.876307000
    0.342000    -0.006999013    -0.029538245    -0.007057982    -0.029431973    -0.879316000
    0.344000    -0.007057982    -0.029431973    -0.007116737    -0.029323278    -0.882291000
    0.346000    -0.007116737    -0.029323278    -0.007175271    -0.029212182    -0.885231000
    0.348000    -0.007175271    -0.029212182    -0.007233582    -0.029098712    -0.888136000
    0.350000    -0.007233582    -0.029098712    -0.007291662    -0.028982889    -0.891007000
    0.352000    -0.007291662    -0.028982889    -0.007349509    -0.028864740    -0.893841000
    0.354000    -0.007349509    -0.028864740    -0.007407118    -0.028744286    -0.896641000
    0.356000    -0.007407118    -0.028744286    -0.007464482    -0.028621551    -0.899405000
    0.358000    -0.007464482    -0.028621551    -0.007521600    -0.028496559    -0.902134000
    0.360000    -0.007521600    -0.028496559    -0.007578465    -0.028369331    -0.904827000
    0.362000    -0.007578465    -0.028369331    -0.007635073    -0.028239892    -0.907484000
    0.364000    -0.007635073    -0.028239892    -0.007691420    -0.028108264    -0.910106000
    0.366000    -0.007691420    -0.028108264    -0.007747502    -0.027974468    -0.912692000
    0.368000    -0.007747502    -0.027974468    -0.007803314    -0.027838528    -0.915241000
    0.370000    -0.007803314    -0.027838528    -0.007858852    -0.027700464    -0.917755000
    0.372000    -0.007858852    -0.027700464    -0.007914112    -0.027560300    -0.920232000
    0.374000    -0.007914112    -0.027560300    -0.007969089    -0.027418056    -0.922673000
    0.376000    -0.007969089    -0.027418056    -0.008023780    -0.027273754    -0.925077000
    0.378000    -0.008023780    -0.027273754    -0.008078180    -0.027127416    -0.927445000
    0.380000    -0.008078180    -0.027127416    -0.008132285    -0.026979062    -0.929776000
    0.382000    -0.008132285    -0.026979062    -0.008186092    -0.026828714    -0.932071000
    0.384000    -0.008186092    -0.026828714    -0.008239596    -0.026676392    -0.934329000
    0.386000    -0.008239596    -0.026676392    -0.008292793    -0.026522117    -0.936550000
    0.388000    -0.008292793    -0.026522117    -0.008345680    -0.026365910    -0.938734000
    0.390000    -0.008345680    -0.026365910    -0.008398252    -0.026207790    -0.940881000
    0.392000    -0.008398252    -0.026207790    -0.008450506    -0.026047779    -0.942991000
    0.394000    -0.008450506    -0.026047779    -0.008502439    -0.025885895    -0.945063000
    0.396000    -0.008502439    -0.025885895    -0.008554045    -0.025722160    -0.947098000
    0.398000    -0.008554045    -0.025722160    -0.008605323    -0.025556592    -0.949096000
    0.400000    -0.008605323    -0.025556592    -0.008656267    -0.025389212    -0.951057000
    0.402000    -0.008656267    -0.025389212    -0.008706875    -0.025220039    -0.952979000
    0.404000    -0.008706875    -0.025220039    -0.008757143    -0.025049093    -0.954865000
    0.406000    -0.008757143    -0.025049093    -0.008807067    -0.024876391    -0.956712000
    0.408000    -0.008807067    -0.024876391    -0.008856644    -0.024701955    -0.958522000
    0.410000    -0.008856644    -0.024701955    -0.008905870    -0.024525802    -0.960294000
    0.412000    -0.008905870    -0.024525802    -0.008954742    -0.024347951    -0.962028000
    0.414000    -0.008954742    -0.024347951    -0.009003257    -0.024168422    -0.963724000
    0.416000    -0.009003257    -0.024168422    -0.009051411    -0.023987233    -0.965382000
    0.418000    -0.009051411    -0.023987233    -0.009099201    -0.023804401    -0.967001000
    0.420000    -0.009099201    -0.023804401    -0.009146624    -0.023619947    -0.968583000
    0.422000    -0.009146624    -0.023619947    -0.009193676    -0.023433887    -0.970127000
    0.424000    -0.009193676    -0.023433887    -0.009240355    -0.023246240    -0.971632000
