Voltage Amplitude:  5  Volts
Voltage Frequency:  0.5  Hz
Phase Difference:  90.0  Degrees

        time            y(t)            v(t)          y(t+1)          v(t+1)         Voltage
    0.000000     0.000000000     0.000000000     0.000542943     0.464627387     5.000000000
    0.002000     0.000542943     0.464627387     0.001563574     0.529992402     4.999901000
    0.004000     0.001563574     0.529992402     0.002625841     0.529557380     4.999605000
    0.006000     0.002625841     0.529557380     0.003677723     0.522122316     4.999112000
    0.008000     0.003677723     0.522122316     0.004713807     0.514028278     4.998421000
    0.010000     0.004713807     0.514028278     0.005733698     0.505957229     4.997533000
    0.012000     0.005733698     0.505957229     0.006737540     0.497981223     4.996447000
    0.014000     0.006737540     0.497981223     0.007725532     0.490106604     4.995165000
    0.016000     0.007725532     0.490106604     0.008697877     0.482332654     4.993685000
    0.018000     0.008697877     0.482332654     0.009654774     0.474657917     4.992008000
    0.020000     0.009654774     0.474657917     0.010596421     0.467080879     4.990134000
    0.022000     0.010596421     0.467080879     0.011523011     0.459600041     4.988063000
    0.024000     0.011523011     0.459600041     0.012434736     0.452213927     4.985795000
    0.026000     0.012434736     0.452213927     0.013331782     0.444921082     4.983330000
    0.028000     0.013331782     0.444921082     0.014214336     0.437720077     4.980668000
    0.030000     0.014214336     0.437720077     0.015082580     0.430609505     4.977810000
    0.032000     0.015082580     0.430609505     0.015936692     0.423587978     4.974755000
    0.034000     0.015936692     0.423587978     0.016776850     0.416654134     4.971504000
    0.036000     0.016776850     0.416654134     0.017603229     0.409806631     4.968057000
    0.038000     0.017603229     0.409806631     0.018415998     0.403044146     4.964413000
    0.040000     0.018415998     0.403044146     0.019215326     0.396365380     4.960574000
    0.042000     0.019215326     0.396365380     0.020001381     0.389769053     4.956538000
    0.044000     0.020001381     0.389769053     0.020774326     0.383253905     4.952307000
    0.046000     0.020774326     0.383253905     0.021534321     0.376818698     4.947881000
    0.048000     0.021534321     0.376818698     0.022281525     0.370462211     4.943259000
    0.050000     0.022281525     0.370462211     0.023016095     0.364183243     4.938442000
    0.052000     0.023016095     0.364183243     0.023738184     0.357980614     4.933430000
    0.054000     0.023738184     0.357980614     0.024447944     0.351853159     4.928223000
    0.056000     0.024447944     0.351853159     0.025145524     0.345799735     4.922822000
    0.058000     0.025145524     0.345799735     0.025831071     0.339819216     4.917226000
    0.060000     0.025831071     0.339819216     0.026504730     0.333910493     4.911436000
    0.062000     0.026504730     0.333910493     0.027166643     0.328072475     4.905453000
    0.064000     0.027166643     0.328072475     0.027816950     0.322304089     4.899275000
    0.066000     0.027816950     0.322304089     0.028455790     0.316604280     4.892905000
    0.068000     0.028455790     0.316604280     0.029083299     0.310972006     4.886341000
    0.070000     0.029083299     0.310972006     0.029699611     0.305406246     4.879584000
    0.072000     0.029699611     0.305406246     0.030304857     0.299905993     4.872634000
    0.074000     0.030304857     0.299905993     0.030899168     0.294470257     4.865493000
    0.076000     0.030899168     0.294470257     0.031482673     0.289098062     4.858159000
    0.078000     0.031482673     0.289098062     0.032055496     0.283788450     4.850633000
    0.080000     0.032055496     0.283788450     0.032617762     0.278540477     4.842916000
    0.082000     0.032617762     0.278540477     0.033169594     0.273353213     4.835007000
    0.084000     0.033169594     0.273353213     0.033711111     0.268225747     4.826908000
    0.086000     0.033711111     0.268225747     0.034242434     0.263157178     4.818618000
    0.088000     0.034242434     0.263157178     0.034763678     0.258146621     4.810138000
    0.090000     0.034763678     0.258146621     0.035274959     0.253193206     4.801468000
    0.092000     0.035274959     0.253193206     0.035776390     0.248296077     4.792609000
    0.094000     0.035776390     0.248296077     0.036268083     0.243454391     4.783560000
    0.096000     0.036268083     0.243454391     0.036750148     0.238667318     4.774323000
    0.098000     0.036750148     0.238667318     0.037222693     0.233934043     4.764897000
    0.100000     0.037222693     0.233934043     0.037685825     0.229253763     4.755283000
    0.102000     0.037685825     0.229253763     0.038139649     0.224625689     4.745481000
    0.104000     0.038139649     0.224625689     0.038584270     0.220049043     4.735492000
    0.106000     0.038584270     0.220049043     0.039019788     0.215523061     4.725315000
    0.108000     0.039019788     0.215523061     0.039446305     0.211046990     4.714953000
    0.110000     0.039446305     0.211046990     0.039863920     0.206620092     4.704404000
    0.112000     0.039863920     0.206620092     0.040272730     0.202241638     4.693669000
    0.114000     0.040272730     0.202241638     0.040672831     0.197910912     4.682749000
    0.116000     0.040672831     0.197910912     0.041064319     0.193627210     4.671645000
    0.118000     0.041064319     0.193627210     0.041447286     0.189389838     4.660356000
    0.120000     0.041447286     0.189389838     0.041821824     0.185198116     4.648882000
    0.122000     0.041821824     0.185198116     0.042188025     0.181051371     4.637226000
    0.124000     0.042188025     0.181051371     0.042545977     0.176948945     4.625386000
    0.126000     0.042545977     0.176948945     0.042895768     0.172890189     4.613364000
    0.128000     0.042895768     0.172890189     0.043237486     0.168874464     4.601159000
    0.130000     0.043237486     0.168874464     0.043571214     0.164901142     4.588773000
    0.132000     0.043571214     0.164901142     0.043897039     0.160969606     4.576206000
    0.134000     0.043897039     0.160969606     0.044215042     0.157079248     4.563458000
    0.136000     0.044215042     0.157079248     0.044525306     0.153229471     4.550530000
    0.138000     0.044525306     0.153229471     0.044827910     0.149419687     4.537422000
    0.140000     0.044827910     0.149419687     0.045122935     0.145649318     4.524135000
    0.142000     0.045122935     0.145649318     0.045410458     0.141917796     4.510670000
    0.144000     0.045410458     0.141917796     0.045690557     0.138224561     4.497026000
    0.146000     0.045690557     0.138224561     0.045963308     0.134569063     4.483205000
    0.148000     0.045963308     0.134569063     0.046228786     0.130950761     4.469207000
    0.150000     0.046228786     0.130950761     0.046487064     0.127369124     4.455033000
    0.152000     0.046487064     0.127369124     0.046738215     0.123823629     4.440682000
    0.154000     0.046738215     0.123823629     0.046982311     0.120313760     4.426157000
    0.156000     0.046982311     0.120313760     0.047219424     0.116839013     4.411456000
    0.158000     0.047219424     0.116839013     0.047449621     0.113398889     4.396582000
    0.160000     0.047449621     0.113398889     0.047672973     0.109992900     4.381533000
    0.162000     0.047672973     0.109992900     0.047889548     0.106620564     4.366312000
    0.164000     0.047889548     0.106620564     0.048099411     0.103281408     4.350919000
    0.166000     0.048099411     0.103281408     0.048302629     0.099974968     4.335354000
    0.168000     0.048302629     0.099974968     0.048499266     0.096700787     4.319617000
    0.170000     0.048499266     0.096700787     0.048689388     0.093458413     4.303710000
    0.172000     0.048689388     0.093458413     0.048873056     0.090247406     4.287633000
    0.174000     0.048873056     0.090247406     0.049050334     0.087067330     4.271387000
    0.176000     0.049050334     0.087067330     0.049221283     0.083917759     4.254972000
    0.178000     0.049221283     0.083917759     0.049385963     0.080798272     4.238390000
    0.180000     0.049385963     0.080798272     0.049544433     0.077708456     4.221640000
    0.182000     0.049544433     0.077708456     0.049696754     0.074647906     4.204723000
    0.184000     0.049696754     0.074647906     0.049842983     0.071616221     4.187640000
    0.186000     0.049842983     0.071616221     0.049983178     0.068613011     4.170392000
    0.188000     0.049983178     0.068613011     0.050117394     0.065637888     4.152979000
    0.190000     0.050117394     0.065637888     0.050245689     0.062690474     4.135403000
    0.192000     0.050245689     0.062690474     0.050368116     0.059770396     4.117663000
    0.194000     0.050368116     0.059770396     0.050484730     0.056877288     4.099761000
    0.196000     0.050484730     0.056877288     0.050595585     0.054010790     4.081696000
    0.198000     0.050595585     0.054010790     0.050700734     0.051170548     4.063471000
    0.200000     0.050700734     0.051170548     0.050800228     0.048356214     4.045085000
    0.202000     0.050800228     0.048356214     0.050894120     0.045567447     4.026539000
    0.204000     0.050894120     0.045567447     0.050982459     0.042803910     4.007835000
    0.206000     0.050982459     0.042803910     0.051065297     0.040065275     3.988972000
    0.208000     0.051065297     0.040065275     0.051142682     0.037351215     3.969952000
    0.210000     0.051142682     0.037351215     0.051214664     0.034661414     3.950775000
    0.212000     0.051214664     0.034661414     0.051281290     0.031995556     3.931442000
    0.214000     0.051281290     0.031995556     0.051342609     0.029353336     3.911954000
    0.216000     0.051342609     0.029353336     0.051398666     0.026734450     3.892312000
    0.218000     0.051398666     0.026734450     0.051449510     0.024138601     3.872515000
    0.220000     0.051449510     0.024138601     0.051495184     0.021565498     3.852566000
    0.222000     0.051495184     0.021565498     0.051535735     0.019014854     3.832465000
    0.224000     0.051535735     0.019014854     0.051571208     0.016486388     3.812213000
    0.226000     0.051571208     0.016486388     0.051601645     0.013979822     3.791810000
    0.228000     0.051601645     0.013979822     0.051627091     0.011494885     3.771257000
    0.230000     0.051627091     0.011494885     0.051647590     0.009031310     3.750555000
    0.232000     0.051647590     0.009031310     0.051663182     0.006588834     3.729706000
    0.234000     0.051663182     0.006588834     0.051673910     0.004167202     3.708709000
    0.236000     0.051673910     0.004167202     0.051679816     0.001766158     3.687566000
    0.238000     0.051679816     0.001766158     0.051681304     0.000705177     3.666277000
    0.240000     0.051681304     0.000705177     0.051681971     0.000598769     3.644843000
    0.242000     0.051681971     0.000598769     0.051682589     0.000502299     3.623266000
    0.244000     0.051682589     0.000502299     0.051683077     0.000458641     3.601545000
    0.246000     0.051683077     0.000458641     0.051683464     0.000416476     3.579682000
    0.248000     0.051683464     0.000416476     0.051683801     0.000279650     3.557678000
    0.250000     0.051683801     0.000279650     0.051683995     0.000119764     3.535534000
    0.252000     0.051683995     0.000119764     0.051684086    -0.000144631     3.513250000
    0.254000     0.051684086    -0.000144631     0.051684105     0.000258030     3.490827000
    0.256000     0.051684105     0.000258030     0.051683982    -0.000300838     3.468267000
    0.258000     0.051683982    -0.000300838     0.051683757    -0.000229011     3.445569000
    0.260000     0.051683757    -0.000229011     0.051683392    -0.000348698     3.422736000
    0.262000     0.051683392    -0.000348698     0.051682980     0.000043741     3.399767000
    0.264000     0.051682980     0.000043741     0.051682454    -0.000686872     3.376664000
    0.266000     0.051682454    -0.000686872     0.051681824    -0.000078196     3.353428000
    0.268000     0.051681824    -0.000078196     0.051681128    -0.000702139     3.330059000
    0.270000     0.051681128    -0.000702139     0.051679854    -0.001254678     3.306559000
    0.272000     0.051679854    -0.001254678     0.051675011    -0.003639562     3.282929000
    0.274000     0.051675011    -0.003639562     0.051665146    -0.006203902     3.259169000
    0.276000     0.051665146    -0.006203902     0.051650148    -0.008765179     3.235280000
    0.278000     0.051650148    -0.008765179     0.051630049    -0.011304318     3.211263000
    0.280000     0.051630049    -0.011304318     0.051604896    -0.013819562     3.187120000
    0.282000     0.051604896    -0.013819562     0.051574737    -0.016310984     3.162851000
    0.284000     0.051574737    -0.016310984     0.051539618    -0.018778845     3.138457000
    0.286000     0.051539618    -0.018778845     0.051499588    -0.021223424     3.113939000
    0.288000     0.051499588    -0.021223424     0.051454691    -0.023644995     3.089298000
    0.290000     0.051454691    -0.023644995     0.051404975    -0.026043828     3.064535000
    0.292000     0.051404975    -0.026043828     0.051350483    -0.028420188     3.039651000
    0.294000     0.051350483    -0.028420188     0.051291262    -0.030774337     3.014648000
    0.296000     0.051291262    -0.030774337     0.051227354    -0.033106529     2.989525000
    0.298000     0.051227354    -0.033106529     0.051158803    -0.035417017     2.964284000
    0.300000     0.051158803    -0.035417017     0.051085654    -0.037706048     2.938926000
    0.302000     0.051085654    -0.037706048     0.051007948    -0.039973863     2.913452000
    0.304000     0.051007948    -0.039973863     0.050925727    -0.042220700     2.887864000
    0.306000     0.050925727    -0.042220700     0.050839034    -0.044446794     2.862161000
    0.308000     0.050839034    -0.044446794     0.050747910    -0.046652374     2.836345000
    0.310000     0.050747910    -0.046652374     0.050652394    -0.048837665     2.810417000
    0.312000     0.050652394    -0.048837665     0.050552529    -0.051002888     2.784378000
    0.314000     0.050552529    -0.051002888     0.050448353    -0.053148260     2.758229000
    0.316000     0.050448353    -0.053148260     0.050339906    -0.055273994     2.731972000
    0.318000     0.050339906    -0.055273994     0.050227228    -0.057380301     2.705606000
    0.320000     0.050227228    -0.057380301     0.050110356    -0.059467384     2.679134000
    0.322000     0.050110356    -0.059467384     0.049989329    -0.061535446     2.652556000
    0.324000     0.049989329    -0.061535446     0.049864185    -0.063584684     2.625873000
    0.326000     0.049864185    -0.063584684     0.049734962    -0.065615292     2.599087000
    0.328000     0.049734962    -0.065615292     0.049601696    -0.067627462     2.572198000
    0.330000     0.049601696    -0.067627462     0.049464424    -0.069621379     2.545207000
    0.332000     0.049464424    -0.069621379     0.049323183    -0.071597227     2.518116000
    0.334000     0.049323183    -0.071597227     0.049178008    -0.073555187     2.490926000
    0.336000     0.049178008    -0.073555187     0.049028935    -0.075495434     2.463637000
    0.338000     0.049028935    -0.075495434     0.048875999    -0.077418143     2.436251000
    0.340000     0.048875999    -0.077418143     0.048719236    -0.079323482     2.408768000
    0.342000     0.048719236    -0.079323482     0.048558679    -0.081211619     2.381191000
    0.344000     0.048558679    -0.081211619     0.048394363    -0.083082717     2.353520000
    0.346000     0.048394363    -0.083082717     0.048226322    -0.084936936     2.325755000
    0.348000     0.048226322    -0.084936936     0.048054589    -0.086774433     2.297899000
    0.350000     0.048054589    -0.086774433     0.047879199    -0.088595364     2.269952000
    0.352000     0.047879199    -0.088595364     0.047700183    -0.090399878     2.241916000
    0.354000     0.047700183    -0.090399878     0.047517574    -0.092188125     2.213791000
    0.356000     0.047517574    -0.092188125     0.047331405    -0.093960249     2.185579000
    0.358000     0.047331405    -0.093960249     0.047141709    -0.095716393     2.157280000
    0.360000     0.047141709    -0.095716393     0.046948515    -0.097456698     2.128896000
    0.362000     0.046948515    -0.097456698     0.046751858    -0.099181299     2.100429000
    0.364000     0.046751858    -0.099181299     0.046551766    -0.100890331     2.071878000
    0.366000     0.046551766    -0.100890331     0.046348272    -0.102583925     2.043245000
    0.368000     0.046348272    -0.102583925     0.046141407    -0.104262211     2.014532000
    0.370000     0.046141407    -0.104262211     0.045931200    -0.105925315     1.985739000
    0.372000     0.045931200    -0.105925315     0.045717683    -0.107573361     1.956868000
    0.374000     0.045717683    -0.107573361     0.045500884    -0.109206469     1.927920000
    0.376000     0.045500884    -0.109206469     0.045280834    -0.110824759     1.898895000
    0.378000     0.045280834    -0.110824759     0.045057563    -0.112428347     1.869796000
    0.380000     0.045057563    -0.112428347     0.044831099    -0.114017347     1.840623000
    0.382000     0.044831099    -0.114017347     0.044601471    -0.115591871     1.811377000
    0.384000     0.044601471    -0.115591871     0.044368709    -0.117152028     1.782059000
    0.386000     0.044368709    -0.117152028     0.044132842    -0.118697925     1.752672000
    0.388000     0.044132842    -0.118697925     0.043893896    -0.120229667     1.723215000
    0.390000     0.043893896    -0.120229667     0.043651902    -0.121747357     1.693690000
    0.392000     0.043651902    -0.121747357     0.043406886    -0.123251095     1.664098000
    0.394000     0.043406886    -0.123251095     0.043158877    -0.124740980     1.634440000
    0.396000     0.043158877    -0.124740980     0.042907902    -0.126217107     1.604718000
    0.398000     0.042907902    -0.126217107     0.042653988    -0.127679572     1.574933000
    0.400000     0.042653988    -0.127679572     0.042397163    -0.129128465     1.545085000
    0.402000     0.042397163    -0.129128465     0.042137454    -0.130563879     1.515176000
    0.404000     0.042137454    -0.130563879     0.041874888    -0.131985899     1.485208000
    0.406000     0.041874888    -0.131985899     0.041609491    -0.133394614     1.455181000
    0.408000     0.041609491    -0.133394614     0.041341290    -0.134790108     1.425096000
    0.410000     0.041341290    -0.134790108     0.041070312    -0.136172462     1.394956000
    0.412000     0.041070312    -0.136172462     0.040796582    -0.137541759     1.364760000
    0.414000     0.040796582    -0.137541759     0.040520126    -0.138898076     1.334510000
    0.416000     0.040520126    -0.138898076     0.040240971    -0.140241492     1.304208000
    0.418000     0.040240971    -0.140241492     0.039959142    -0.141572081     1.273854000
    0.420000     0.039959142    -0.141572081     0.039674665    -0.142889917     1.243449000
    0.422000     0.039674665    -0.142889917     0.039387565    -0.144195073     1.212996000
    0.424000     0.039387565    -0.144195073     0.039097867    -0.145487619     1.182495000
