Voltage Amplitude:  7  Volts
Voltage Frequency:  1  Hz
Phase Difference:  270.0  Degrees

        time            y(t)            v(t)          y(t+1)          v(t+1)         Voltage
    0.000000     0.000000000     0.000000000    -0.000198207    -0.420177201    -7.000000000
    0.001000    -0.000198207    -0.420177201    -0.000751677    -0.644681387    -6.999862000
    0.002000    -0.000751677    -0.644681387    -0.001439806    -0.716857026    -6.999447000
    0.003000    -0.001439806    -0.716857026    -0.002169159    -0.736968057    -6.998756000
    0.004000    -0.002169159    -0.736968057    -0.002908288    -0.739705562    -6.997789000
    0.005000    -0.002908288    -0.739705562    -0.003646715    -0.736659478    -6.996546000
    0.006000    -0.003646715    -0.736659478    -0.004380953    -0.731695836    -6.995026000
    0.007000    -0.004380953    -0.731695836    -0.005109853    -0.726104053    -6.993231000
    0.008000    -0.005109853    -0.726104053    -0.005833041    -0.720314126    -6.991159000
    0.009000    -0.005833041    -0.720314126    -0.006550405    -0.714469397    -6.988811000
    0.010000    -0.006550405    -0.714469397    -0.007261919    -0.708617599    -6.986187000
    0.011000    -0.007261919    -0.708617599    -0.007967585    -0.702774578    -6.983288000
    0.012000    -0.007967585    -0.702774578    -0.008667415    -0.696945545    -6.980112000
    0.013000    -0.008667415    -0.696945545    -0.009361423    -0.691132162    -6.976661000
    0.014000    -0.009361423    -0.691132162    -0.010049626    -0.685334911    -6.972935000
    0.015000    -0.010049626    -0.685334911    -0.010732040    -0.679553882    -6.968934000
    0.016000    -0.010732040    -0.679553882    -0.011408682    -0.673789033    -6.964657000
    0.017000    -0.011408682    -0.673789033    -0.012079566    -0.668040280    -6.960106000
    0.018000    -0.012079566    -0.668040280    -0.012744710    -0.662307526    -6.955279000
    0.019000    -0.012744710    -0.662307526    -0.013404129    -0.656590670    -6.950178000
    0.020000    -0.013404129    -0.656590670    -0.014057840    -0.650889612    -6.944803000
    0.021000    -0.014057840    -0.650889612    -0.014705857    -0.645204252    -6.939153000
    0.022000    -0.014705857    -0.645204252    -0.015348197    -0.639534490    -6.933230000
    0.023000    -0.015348197    -0.639534490    -0.015984874    -0.633880229    -6.927033000
    0.024000    -0.015984874    -0.633880229    -0.016615906    -0.628241374    -6.920562000
    0.025000    -0.016615906    -0.628241374    -0.017241306    -0.622617829    -6.913818000
    0.026000    -0.017241306    -0.622617829    -0.017861090    -0.617009500    -6.906802000
    0.027000    -0.017861090    -0.617009500    -0.018475274    -0.611416297    -6.899512000
    0.028000    -0.018475274    -0.611416297    -0.019083872    -0.605838127    -6.891950000
    0.029000    -0.019083872    -0.605838127    -0.019686900    -0.600274901    -6.884116000
    0.030000    -0.019686900    -0.600274901    -0.020284371    -0.594726532    -6.876011000
    0.031000    -0.020284371    -0.594726532    -0.020876302    -0.589192931    -6.867634000
    0.032000    -0.020876302    -0.589192931    -0.021462707    -0.583674014    -6.858985000
    0.033000    -0.021462707    -0.583674014    -0.022043600    -0.578169696    -6.850066000
    0.034000    -0.022043600    -0.578169696    -0.022618996    -0.572679894    -6.840877000
    0.035000    -0.022618996    -0.572679894    -0.023188910    -0.567204525    -6.831417000
    0.036000    -0.023188910    -0.567204525    -0.023753355    -0.561743511    -6.821688000
    0.037000    -0.023753355    -0.561743511    -0.024312347    -0.556296770    -6.811690000
    0.038000    -0.024312347    -0.556296770    -0.024865899    -0.550864224    -6.801422000
    0.039000    -0.024865899    -0.550864224    -0.025414026    -0.545445798    -6.790886000
    0.040000    -0.025414026    -0.545445798    -0.025956741    -0.540041414    -6.780082000
    0.041000    -0.025956741    -0.540041414    -0.026494059    -0.534650999    -6.769010000
    0.042000    -0.026494059    -0.534650999    -0.027025994    -0.529274480    -6.757671000
    0.043000    -0.027025994    -0.529274480    -0.027552559    -0.523911783    -6.746066000
    0.044000    -0.027552559    -0.523911783    -0.028073769    -0.518562838    -6.734194000
    0.045000    -0.028073769    -0.518562838    -0.028589636    -0.513227575    -6.722056000
    0.046000    -0.028589636    -0.513227575    -0.029100175    -0.507905926    -6.709653000
    0.047000    -0.029100175    -0.507905926    -0.029605399    -0.502597823    -6.696984000
    0.048000    -0.029605399    -0.502597823    -0.030105322    -0.497303200    -6.684052000
    0.049000    -0.030105322    -0.497303200    -0.030599957    -0.492021991    -6.670855000
    0.050000    -0.030599957    -0.492021991    -0.031089318    -0.486754133    -6.657396000
    0.051000    -0.031089318    -0.486754133    -0.031573417    -0.481499562    -6.643673000
    0.052000    -0.031573417    -0.481499562    -0.032052269    -0.476258217    -6.629688000
    0.053000    -0.032052269    -0.476258217    -0.032525886    -0.471030037    -6.615442000
    0.054000    -0.032525886    -0.471030037    -0.032994281    -0.465814962    -6.600934000
    0.055000    -0.032994281    -0.465814962    -0.033457468    -0.460612934    -6.586165000
    0.056000    -0.033457468    -0.460612934    -0.033915459    -0.455423896    -6.571137000
    0.057000    -0.033915459    -0.455423896    -0.034368268    -0.450247790    -6.555849000
    0.058000    -0.034368268    -0.450247790    -0.034815908    -0.445084563    -6.540303000
    0.059000    -0.034815908    -0.445084563    -0.035258390    -0.439934159    -6.524498000
    0.060000    -0.035258390    -0.439934159    -0.035695729    -0.434796525    -6.508435000
    0.061000    -0.035695729    -0.434796525    -0.036127936    -0.429671610    -6.492116000
    0.062000    -0.036127936    -0.429671610    -0.036555025    -0.424559363    -6.475540000
    0.063000    -0.036555025    -0.424559363    -0.036977008    -0.419459733    -6.458709000
    0.064000    -0.036977008    -0.419459733    -0.037393898    -0.414372672    -6.441623000
    0.065000    -0.037393898    -0.414372672    -0.037805707    -0.409298132    -6.424282000
    0.066000    -0.037805707    -0.409298132    -0.038212447    -0.404236065    -6.406688000
    0.067000    -0.038212447    -0.404236065    -0.038614132    -0.399186427    -6.388841000
    0.068000    -0.038614132    -0.399186427    -0.039010774    -0.394149171    -6.370742000
    0.069000    -0.039010774    -0.394149171    -0.039402385    -0.389124256    -6.352391000
    0.070000    -0.039402385    -0.389124256    -0.039788976    -0.384111636    -6.333789000
    0.071000    -0.039788976    -0.384111636    -0.040170562    -0.379111272    -6.314938000
    0.072000    -0.040170562    -0.379111272    -0.040547153    -0.374123121    -6.295837000
    0.073000    -0.040547153    -0.374123121    -0.040918762    -0.369147145    -6.276487000
    0.074000    -0.040918762    -0.369147145    -0.041285402    -0.364183304    -6.256890000
    0.075000    -0.041285402    -0.364183304    -0.041647083    -0.359231560    -6.237046000
    0.076000    -0.041647083    -0.359231560    -0.042003819    -0.354291877    -6.216955000
    0.077000    -0.042003819    -0.354291877    -0.042355622    -0.349364219    -6.196619000
    0.078000    -0.042355622    -0.349364219    -0.042702503    -0.344448550    -6.176039000
    0.079000    -0.042702503    -0.344448550    -0.043044474    -0.339544837    -6.155214000
    0.080000    -0.043044474    -0.339544837    -0.043381547    -0.334653046    -6.134147000
    0.081000    -0.043381547    -0.334653046    -0.043713735    -0.329773145    -6.112837000
    0.082000    -0.043713735    -0.329773145    -0.044041049    -0.324905104    -6.091286000
    0.083000    -0.044041049    -0.324905104    -0.044363501    -0.320048892    -6.069495000
    0.084000    -0.044363501    -0.320048892    -0.044681102    -0.315204479    -6.047464000
    0.085000    -0.044681102    -0.315204479    -0.044993865    -0.310371837    -6.025194000
    0.086000    -0.044993865    -0.310371837    -0.045301801    -0.305550940    -6.002687000
    0.087000    -0.045301801    -0.305550940    -0.045604923    -0.300741759    -5.979942000
    0.088000    -0.045604923    -0.300741759    -0.045903241    -0.295944270    -5.956961000
    0.089000    -0.045903241    -0.295944270    -0.046196767    -0.291158447    -5.933746000
    0.090000    -0.046196767    -0.291158447    -0.046485514    -0.286384267    -5.910295000
    0.091000    -0.046485514    -0.286384267    -0.046769492    -0.281621707    -5.886612000
    0.092000    -0.046769492    -0.281621707    -0.047048713    -0.276870745    -5.862696000
    0.093000    -0.047048713    -0.276870745    -0.047323190    -0.272131360    -5.838549000
    0.094000    -0.047323190    -0.272131360    -0.047592933    -0.267403531    -5.814171000
    0.095000    -0.047592933    -0.267403531    -0.047857953    -0.262687239    -5.789564000
    0.096000    -0.047857953    -0.262687239    -0.048118264    -0.257982465    -5.764728000
    0.097000    -0.048118264    -0.257982465    -0.048373875    -0.253289191    -5.739665000
    0.098000    -0.048373875    -0.253289191    -0.048624799    -0.248607402    -5.714375000
    0.099000    -0.048624799    -0.248607402    -0.048871047    -0.243937080    -5.688859000
    0.100000    -0.048871047    -0.243937080    -0.049112631    -0.239278212    -5.663119000
    0.101000    -0.049112631    -0.239278212    -0.049349561    -0.234630781    -5.637155000
    0.102000    -0.049349561    -0.234630781    -0.049581849    -0.229994776    -5.610969000
    0.103000    -0.049581849    -0.229994776    -0.049809508    -0.225370183    -5.584561000
    0.104000    -0.049809508    -0.225370183    -0.050032547    -0.220756991    -5.557933000
    0.105000    -0.050032547    -0.220756991    -0.050250980    -0.216155189    -5.531085000
    0.106000    -0.050250980    -0.216155189    -0.050464816    -0.211564767    -5.504019000
    0.107000    -0.050464816    -0.211564767    -0.050674067    -0.206985715    -5.476736000
    0.108000    -0.050674067    -0.206985715    -0.050878745    -0.202418025    -5.449236000
    0.109000    -0.050878745    -0.202418025    -0.051078861    -0.197861690    -5.421521000
    0.110000    -0.051078861    -0.197861690    -0.051274427    -0.193316703    -5.393593000
    0.111000    -0.051274427    -0.193316703    -0.051465453    -0.188783057    -5.365451000
    0.112000    -0.051465453    -0.188783057    -0.051651951    -0.184260748    -5.337098000
    0.113000    -0.051651951    -0.184260748    -0.051833933    -0.179749772    -5.308533000
    0.114000    -0.051833933    -0.179749772    -0.052011410    -0.175250124    -5.279760000
    0.115000    -0.052011410    -0.175250124    -0.052184392    -0.170761802    -5.250777000
    0.116000    -0.052184392    -0.170761802    -0.052352892    -0.166284804    -5.221588000
    0.117000    -0.052352892    -0.166284804    -0.052516921    -0.161819129    -5.192192000
    0.118000    -0.052516921    -0.161819129    -0.052676490    -0.157364776    -5.162592000
    0.119000    -0.052676490    -0.157364776    -0.052831610    -0.152921746    -5.132787000
    0.120000    -0.052831610    -0.152921746    -0.052982293    -0.148490039    -5.102780000
    0.121000    -0.052982293    -0.148490039    -0.053128549    -0.144069659    -5.072572000
    0.122000    -0.053128549    -0.144069659    -0.053270391    -0.139660606    -5.042163000
    0.123000    -0.053270391    -0.139660606    -0.053407830    -0.135262886    -5.011555000
    0.124000    -0.053407830    -0.135262886    -0.053540877    -0.130876502    -4.980750000
    0.125000    -0.053540877    -0.130876502    -0.053669543    -0.126501459    -4.949747000
    0.126000    -0.053669543    -0.126501459    -0.053793840    -0.122137763    -4.918550000
    0.127000    -0.053793840    -0.122137763    -0.053913779    -0.117785420    -4.887158000
    0.128000    -0.053913779    -0.117785420    -0.054029371    -0.113444438    -4.855573000
    0.129000    -0.054029371    -0.113444438    -0.054140628    -0.109114824    -4.823797000
    0.130000    -0.054140628    -0.109114824    -0.054247561    -0.104796587    -4.791830000
    0.131000    -0.054247561    -0.104796587    -0.054350182    -0.100489737    -4.759674000
    0.132000    -0.054350182    -0.100489737    -0.054448502    -0.096194284    -4.727330000
    0.133000    -0.054448502    -0.096194284    -0.054542532    -0.091910238    -4.694799000
    0.134000    -0.054542532    -0.091910238    -0.054632283    -0.087637612    -4.662083000
    0.135000    -0.054632283    -0.087637612    -0.054717768    -0.083376418    -4.629183000
    0.136000    -0.054717768    -0.083376418    -0.054798997    -0.079126668    -4.596100000
    0.137000    -0.054798997    -0.079126668    -0.054875983    -0.074888376    -4.562836000
    0.138000    -0.054875983    -0.074888376    -0.054948736    -0.070661558    -4.529392000
    0.139000    -0.054948736    -0.070661558    -0.055017267    -0.066446228    -4.495769000
    0.140000    -0.055017267    -0.066446228    -0.055081590    -0.062242402    -4.461968000
    0.141000    -0.055081590    -0.062242402    -0.055141714    -0.058050097    -4.427991000
    0.142000    -0.055141714    -0.058050097    -0.055197652    -0.053869329    -4.393840000
    0.143000    -0.055197652    -0.053869329    -0.055249415    -0.049700118    -4.359514000
    0.144000    -0.055249415    -0.049700118    -0.055297014    -0.045542481    -4.325017000
    0.145000    -0.055297014    -0.045542481    -0.055340462    -0.041396439    -4.290349000
    0.146000    -0.055340462    -0.041396439    -0.055379770    -0.037262010    -4.255512000
    0.147000    -0.055379770    -0.037262010    -0.055414949    -0.033139216    -4.220507000
    0.148000    -0.055414949    -0.033139216    -0.055446011    -0.029028079    -4.185335000
    0.149000    -0.055446011    -0.029028079    -0.055472968    -0.024928619    -4.149998000
    0.150000    -0.055472968    -0.024928619    -0.055495831    -0.020840861    -4.114497000
    0.151000    -0.055495831    -0.020840861    -0.055514613    -0.016764827    -4.078833000
    0.152000    -0.055514613    -0.016764827    -0.055529324    -0.012700542    -4.043009000
    0.153000    -0.055529324    -0.012700542    -0.055539977    -0.008648030    -4.007025000
    0.154000    -0.055539977    -0.008648030    -0.055546584    -0.004607316    -3.970883000
    0.155000    -0.055546584    -0.004607316    -0.055549155    -0.000578428    -3.934584000
    0.156000    -0.055549155    -0.000578428    -0.055549318     0.000025939    -3.898129000
    0.157000    -0.055549318     0.000025939    -0.055549423    -0.000254213    -3.861521000
    0.158000    -0.055549423    -0.000254213    -0.055549488    -0.000069918    -3.824760000
    0.159000    -0.055549488    -0.000069918    -0.055549516     0.000192331    -3.787849000
    0.160000    -0.055549516     0.000192331    -0.055549482     0.000112720    -3.750788000
    0.161000    -0.055549482     0.000112720    -0.055549430     0.000168603    -3.713578000
    0.162000    -0.055549430     0.000168603    -0.055549335    -0.000058658    -3.676222000
    0.163000    -0.055549335    -0.000058658    -0.055549191     0.000271649    -3.638721000
    0.164000    -0.055549191     0.000271649    -0.055548999     0.000354929    -3.601077000
    0.165000    -0.055548999     0.000354929    -0.055548041     0.001996729    -3.563290000
    0.166000    -0.055548041     0.001996729    -0.055544433     0.005339522    -3.525362000
    0.167000    -0.055544433     0.005339522    -0.055537147     0.009242158    -3.487296000
    0.168000    -0.055537147     0.009242158    -0.055525853     0.013318859    -3.449091000
    0.169000    -0.055525853     0.013318859    -0.055510453     0.017442844    -3.410751000
    0.170000    -0.055510453     0.017442844    -0.055490924     0.021572509    -3.372276000
    0.171000    -0.055490924     0.021572509    -0.055467269     0.025694198    -3.333667000
    0.172000    -0.055467269     0.025694198    -0.055439499     0.029803420    -3.294928000
    0.173000    -0.055439499     0.029803420    -0.055407626     0.033898689    -3.256058000
    0.174000    -0.055407626     0.033898689    -0.055371666     0.037979505    -3.217059000
    0.175000    -0.055371666     0.037979505    -0.055331631     0.042045690    -3.177933000
    0.176000    -0.055331631     0.042045690    -0.055287538     0.046097170    -3.138683000
    0.177000    -0.055287538     0.046097170    -0.055239402     0.050133908    -3.099308000
    0.178000    -0.055239402     0.050133908    -0.055187235     0.054155875    -3.059810000
    0.179000    -0.055187235     0.054155875    -0.055131055     0.058163045    -3.020192000
    0.180000    -0.055131055     0.058163045    -0.055070874     0.062155394    -2.980455000
    0.181000    -0.055070874     0.062155394    -0.055006709     0.066132898    -2.940600000
    0.182000    -0.055006709     0.066132898    -0.054938574     0.070095530    -2.900629000
    0.183000    -0.054938574     0.070095530    -0.054866483     0.074043265    -2.860544000
    0.184000    -0.054866483     0.074043265    -0.054790453     0.077976076    -2.820345000
    0.185000    -0.054790453     0.077976076    -0.054710497     0.081893935    -2.780035000
    0.186000    -0.054710497     0.081893935    -0.054626631     0.085796815    -2.739616000
    0.187000    -0.054626631     0.085796815    -0.054538869     0.089684687    -2.699088000
    0.188000    -0.054538869     0.089684687    -0.054447227     0.093557521    -2.658454000
    0.189000    -0.054447227     0.093557521    -0.054351721     0.097415287    -2.617714000
    0.190000    -0.054351721     0.097415287    -0.054252363     0.101257956    -2.576872000
    0.191000    -0.054252363     0.101257956    -0.054149171     0.105085496    -2.535928000
    0.192000    -0.054149171     0.105085496    -0.054042159     0.108897874    -2.494883000
    0.193000    -0.054042159     0.108897874    -0.053931343     0.112695059    -2.453740000
    0.194000    -0.053931343     0.112695059    -0.053816736     0.116477017    -2.412500000
    0.195000    -0.053816736     0.116477017    -0.053698356     0.120243715    -2.371165000
    0.196000    -0.053698356     0.120243715    -0.053576216     0.123995119    -2.329737000
    0.197000    -0.053576216     0.123995119    -0.053450333     0.127731193    -2.288216000
    0.198000    -0.053450333     0.127731193    -0.053320722     0.131451903    -2.246605000
    0.199000    -0.053320722     0.131451903    -0.053187398     0.135157212    -2.204906000
    0.200000    -0.053187398     0.135157212    -0.053050376     0.138847083    -2.163119000
    0.201000    -0.053050376     0.138847083    -0.052909672     0.142521480    -2.121247000
    0.202000    -0.052909672     0.142521480    -0.052765301     0.146180365    -2.079291000
    0.203000    -0.052765301     0.146180365    -0.052617280     0.149823699    -2.037253000
    0.204000    -0.052617280     0.149823699    -0.052465623     0.153451443    -1.995135000
    0.205000    -0.052465623     0.153451443    -0.052310346     0.157063559    -1.952938000
    0.206000    -0.052310346     0.157063559    -0.052151465     0.160660007    -1.910664000
    0.207000    -0.052151465     0.160660007    -0.051988995     0.164240745    -1.868314000
    0.208000    -0.051988995     0.164240745    -0.051822953     0.167805733    -1.825891000
    0.209000    -0.051822953     0.167805733    -0.051653353     0.171354930    -1.783395000
    0.210000    -0.051653353     0.171354930    -0.051480213     0.174888292    -1.740829000
    0.211000    -0.051480213     0.174888292    -0.051303547     0.178405779    -1.698195000
    0.212000    -0.051303547     0.178405779    -0.051123371     0.181907347    -1.655493000
