Voltage Amplitude:  1  Volts
Voltage Frequency:  1  Hz
Phase Difference:  90.0  Degrees

        time            y(t)            v(t)          y(t+1)          v(t+1)         Voltage
    0.000000     0.000000000     0.000000000     0.000023255     0.051890954     1.000000000
    0.001000     0.000023255     0.051890954     0.000093121     0.082149754     0.999980000
    0.002000     0.000093121     0.082149754     0.000181048     0.091715186     0.999921000
    0.003000     0.000181048     0.091715186     0.000274380     0.094306346     0.999822000
    0.004000     0.000274380     0.094306346     0.000368952     0.094635006     0.999684000
    0.005000     0.000368952     0.094635006     0.000463415     0.094231915     0.999507000
    0.006000     0.000463415     0.094231915     0.000557335     0.093592746     0.999289000
    0.007000     0.000557335     0.093592746     0.000650570     0.092877966     0.999033000
    0.008000     0.000650570     0.092877966     0.000743076     0.092139523     0.998737000
    0.009000     0.000743076     0.092139523     0.000834839     0.091394226     0.998402000
    0.010000     0.000834839     0.091394226     0.000925856     0.090647515     0.998027000
    0.011000     0.000925856     0.090647515     0.001016127     0.089901145     0.997613000
    0.012000     0.001016127     0.089901145     0.001105652     0.089155678     0.997159000
    0.013000     0.001105652     0.089155678     0.001194431     0.088411294     0.996666000
    0.014000     0.001194431     0.088411294     0.001282467     0.087668044     0.996134000
    0.015000     0.001282467     0.087668044     0.001369760     0.086925943     0.995562000
    0.016000     0.001369760     0.086925943     0.001456312     0.086184989     0.994951000
    0.017000     0.001456312     0.086184989     0.001542123     0.085445179     0.994301000
    0.018000     0.001542123     0.085445179     0.001627195     0.084706508     0.993611000
    0.019000     0.001627195     0.084706508     0.001711529     0.083968970     0.992883000
    0.020000     0.001711529     0.083968970     0.001795126     0.083232560     0.992115000
    0.021000     0.001795126     0.083232560     0.001877987     0.082497273     0.991308000
    0.022000     0.001877987     0.082497273     0.001960114     0.081763103     0.990461000
    0.023000     0.001960114     0.081763103     0.002041507     0.081030047     0.989576000
    0.024000     0.002041507     0.081030047     0.002122167     0.080298098     0.988652000
    0.025000     0.002122167     0.080298098     0.002202096     0.079567254     0.987688000
    0.026000     0.002202096     0.079567254     0.002281295     0.078837509     0.986686000
    0.027000     0.002281295     0.078837509     0.002359764     0.078108860     0.985645000
    0.028000     0.002359764     0.078108860     0.002437505     0.077381304     0.984564000
    0.029000     0.002437505     0.077381304     0.002514520     0.076654835     0.983445000
    0.030000     0.002514520     0.076654835     0.002590808     0.075929452     0.982287000
    0.031000     0.002590808     0.075929452     0.002666372     0.075205150     0.981091000
    0.032000     0.002666372     0.075205150     0.002741212     0.074481927     0.979855000
    0.033000     0.002741212     0.074481927     0.002815329     0.073759780     0.978581000
    0.034000     0.002815329     0.073759780     0.002888724     0.073038707     0.977268000
    0.035000     0.002888724     0.073038707     0.002961399     0.072318704     0.975917000
    0.036000     0.002961399     0.072318704     0.003033355     0.071599770     0.974527000
    0.037000     0.003033355     0.071599770     0.003104592     0.070881903     0.973099000
    0.038000     0.003104592     0.070881903     0.003175112     0.070165100     0.971632000
    0.039000     0.003175112     0.070165100     0.003244915     0.069449361     0.970127000
    0.040000     0.003244915     0.069449361     0.003314004     0.068734682     0.968583000
    0.041000     0.003314004     0.068734682     0.003382378     0.068021064     0.967001000
    0.042000     0.003382378     0.068021064     0.003450039     0.067308505     0.965382000
    0.043000     0.003450039     0.067308505     0.003516988     0.066597003     0.963724000
    0.044000     0.003516988     0.066597003     0.003583226     0.065886559     0.962028000
    0.045000     0.003583226     0.065886559     0.003648755     0.065177171     0.960294000
    0.046000     0.003648755     0.065177171     0.003713574     0.064468839     0.958522000
    0.047000     0.003713574     0.064468839     0.003777686     0.063761562     0.956712000
    0.048000     0.003777686     0.063761562     0.003841090     0.063055341     0.954865000
    0.049000     0.003841090     0.063055341     0.003903789     0.062350175     0.952979000
    0.050000     0.003903789     0.062350175     0.003965784     0.061646065     0.951057000
    0.051000     0.003965784     0.061646065     0.004027075     0.060943011     0.949096000
    0.052000     0.004027075     0.060943011     0.004087663     0.060241013     0.947098000
    0.053000     0.004087663     0.060241013     0.004147550     0.059540072     0.945063000
    0.054000     0.004147550     0.059540072     0.004206737     0.058840190     0.942991000
    0.055000     0.004206737     0.058840190     0.004265224     0.058141365     0.940881000
    0.056000     0.004265224     0.058141365     0.004323013     0.057443601     0.938734000
    0.057000     0.004323013     0.057443601     0.004380105     0.056746898     0.936550000
    0.058000     0.004380105     0.056746898     0.004436500     0.056051258     0.934329000
    0.059000     0.004436500     0.056051258     0.004492201     0.055356682     0.932071000
    0.060000     0.004492201     0.055356682     0.004547207     0.054663172     0.929776000
    0.061000     0.004547207     0.054663172     0.004601520     0.053970730     0.927445000
    0.062000     0.004601520     0.053970730     0.004655142     0.053279357     0.925077000
    0.063000     0.004655142     0.053279357     0.004708072     0.052589056     0.922673000
    0.064000     0.004708072     0.052589056     0.004760313     0.051899830     0.920232000
    0.065000     0.004760313     0.051899830     0.004811866     0.051211680     0.917755000
    0.066000     0.004811866     0.051211680     0.004862730     0.050524610     0.915241000
    0.067000     0.004862730     0.050524610     0.004912908     0.049838622     0.912692000
    0.068000     0.004912908     0.049838622     0.004962401     0.049153718     0.910106000
    0.069000     0.004962401     0.049153718     0.005011209     0.048469902     0.907484000
    0.070000     0.005011209     0.048469902     0.005059334     0.047787178     0.904827000
    0.071000     0.005059334     0.047787178     0.005106777     0.047105547     0.902134000
    0.072000     0.005106777     0.047105547     0.005153539     0.046425014     0.899405000
    0.073000     0.005153539     0.046425014     0.005199621     0.045745582     0.896641000
    0.074000     0.005199621     0.045745582     0.005245024     0.045067255     0.893841000
    0.075000     0.005245024     0.045067255     0.005289749     0.044390037     0.891007000
    0.076000     0.005289749     0.044390037     0.005333797     0.043713931     0.888136000
    0.077000     0.005333797     0.043713931     0.005377170     0.043038941     0.885231000
    0.078000     0.005377170     0.043038941     0.005419869     0.042365072     0.882291000
    0.079000     0.005419869     0.042365072     0.005461894     0.041692328     0.879316000
    0.080000     0.005461894     0.041692328     0.005503247     0.041020713     0.876307000
    0.081000     0.005503247     0.041020713     0.005543929     0.040350232     0.873262000
    0.082000     0.005543929     0.040350232     0.005583941     0.039680890     0.870184000
    0.083000     0.005583941     0.039680890     0.005623285     0.039012690     0.867071000
    0.084000     0.005623285     0.039012690     0.005661960     0.038345639     0.863923000
    0.085000     0.005661960     0.038345639     0.005699970     0.037679741     0.860742000
    0.086000     0.005699970     0.037679741     0.005737314     0.037015000     0.857527000
    0.087000     0.005737314     0.037015000     0.005773993     0.036351423     0.854277000
    0.088000     0.005773993     0.036351423     0.005810010     0.035689015     0.850994000
    0.089000     0.005810010     0.035689015     0.005845365     0.035027780     0.847678000
    0.090000     0.005845365     0.035027780     0.005880060     0.034367725     0.844328000
    0.091000     0.005880060     0.034367725     0.005914095     0.033708856     0.840945000
    0.092000     0.005914095     0.033708856     0.005947471     0.033051177     0.837528000
    0.093000     0.005947471     0.033051177     0.005980191     0.032394695     0.834078000
    0.094000     0.005980191     0.032394695     0.006012254     0.031739415     0.830596000
    0.095000     0.006012254     0.031739415     0.006043663     0.031085344     0.827081000
    0.096000     0.006043663     0.031085344     0.006074419     0.030432488     0.823533000
    0.097000     0.006074419     0.030432488     0.006104522     0.029780853     0.819952000
    0.098000     0.006104522     0.029780853     0.006133975     0.029130446     0.816339000
    0.099000     0.006133975     0.029130446     0.006162777     0.028481272     0.812694000
    0.100000     0.006162777     0.028481272     0.006190931     0.027833339     0.809017000
    0.101000     0.006190931     0.027833339     0.006218438     0.027186652     0.805308000
    0.102000     0.006218438     0.027186652     0.006245298     0.026541219     0.801567000
    0.103000     0.006245298     0.026541219     0.006271514     0.025897047     0.797794000
    0.104000     0.006271514     0.025897047     0.006297086     0.025254142     0.793990000
    0.105000     0.006297086     0.025254142     0.006322016     0.024612512     0.790155000
    0.106000     0.006322016     0.024612512     0.006346305     0.023972163     0.786288000
    0.107000     0.006346305     0.023972163     0.006369955     0.023333102     0.782391000
    0.108000     0.006369955     0.023333102     0.006392966     0.022695338     0.778462000
    0.109000     0.006392966     0.022695338     0.006415339     0.022058876     0.774503000
    0.110000     0.006415339     0.022058876     0.006437077     0.021423725     0.770513000
    0.111000     0.006437077     0.021423725     0.006458181     0.020789892     0.766493000
    0.112000     0.006458181     0.020789892     0.006478651     0.020157385     0.762443000
    0.113000     0.006478651     0.020157385     0.006498490     0.019526211     0.758362000
    0.114000     0.006498490     0.019526211     0.006517698     0.018896378     0.754251000
    0.115000     0.006517698     0.018896378     0.006536277     0.018267893     0.750111000
    0.116000     0.006536277     0.018267893     0.006554228     0.017640765     0.745941000
    0.117000     0.006554228     0.017640765     0.006571553     0.017015002     0.741742000
    0.118000     0.006571553     0.017015002     0.006588252     0.016390611     0.737513000
    0.119000     0.006588252     0.016390611     0.006604328     0.015767601     0.733255000
    0.120000     0.006604328     0.015767601     0.006619782     0.015145980     0.728969000
    0.121000     0.006619782     0.015145980     0.006634614     0.014525756     0.724653000
    0.122000     0.006634614     0.014525756     0.006648827     0.013906938     0.720309000
    0.123000     0.006648827     0.013906938     0.006662422     0.013289533     0.715936000
    0.124000     0.006662422     0.013289533     0.006675401     0.012673550     0.711536000
    0.125000     0.006675401     0.012673550     0.006687764     0.012058998     0.707107000
    0.126000     0.006687764     0.012058998     0.006699513     0.011445885     0.702650000
    0.127000     0.006699513     0.011445885     0.006710650     0.010834220     0.698165000
    0.128000     0.006710650     0.010834220     0.006721176     0.010224012     0.693653000
    0.129000     0.006721176     0.010224012     0.006731092     0.009615269     0.689114000
    0.130000     0.006731092     0.009615269     0.006740401     0.009008000     0.684547000
    0.131000     0.006740401     0.009008000     0.006749103     0.008402214     0.679953000
    0.132000     0.006749103     0.008402214     0.006757200     0.007797920     0.675333000
    0.133000     0.006757200     0.007797920     0.006764693     0.007195126     0.670686000
    0.134000     0.006764693     0.007195126     0.006771584     0.006593843     0.666012000
    0.135000     0.006771584     0.006593843     0.006777875     0.005994078     0.661312000
    0.136000     0.006777875     0.005994078     0.006783567     0.005395842     0.656586000
    0.137000     0.006783567     0.005395842     0.006788661     0.004799143     0.651834000
    0.138000     0.006788661     0.004799143     0.006793160     0.004203991     0.647056000
    0.139000     0.006793160     0.004203991     0.006797064     0.003610394     0.642253000
    0.140000     0.006797064     0.003610394     0.006800375     0.003018363     0.637424000
    0.141000     0.006800375     0.003018363     0.006803095     0.002427906     0.632570000
    0.142000     0.006803095     0.002427906     0.006805226     0.001839033     0.627691000
    0.143000     0.006805226     0.001839033     0.006806768     0.001251753     0.622788000
    0.144000     0.006806768     0.001251753     0.006807724     0.000666077     0.617860000
    0.145000     0.006807724     0.000666077     0.006808095     0.000082013     0.612907000
    0.146000     0.006808095     0.000082013     0.006808269     0.000362004     0.607930000
    0.147000     0.006808269     0.000362004     0.006808455     0.000016688     0.602930000
    0.148000     0.006808455     0.000016688     0.006808642     0.000291323     0.597905000
    0.149000     0.006808642     0.000291323     0.006808813     0.000372669     0.592857000
    0.150000     0.006808813     0.000372669     0.006808985     0.000242793     0.587785000
    0.151000     0.006808985     0.000242793     0.006809150     0.000317422     0.582690000
    0.152000     0.006809150     0.000317422     0.006809315     0.000175796     0.577573000
    0.153000     0.006809315     0.000175796     0.006809475     0.000231433     0.572432000
    0.154000     0.006809475     0.000231433     0.006809628     0.000070476     0.567269000
    0.155000     0.006809628     0.000070476     0.006809768     0.000111016     0.562083000
    0.156000     0.006809768     0.000111016     0.006809895    -0.000063115     0.556876000
    0.157000     0.006809895    -0.000063115     0.006810019    -0.000051790     0.551646000
    0.158000     0.006810019    -0.000051790     0.006810138     0.000144038     0.546394000
    0.159000     0.006810138     0.000144038     0.006810255     0.000105651     0.541121000
    0.160000     0.006810255     0.000105651     0.006810361     0.000251811     0.535827000
    0.161000     0.006810361     0.000251811     0.006810475     0.000148687     0.530511000
    0.162000     0.006810475     0.000148687     0.006810569     0.000235025     0.525175000
    0.163000     0.006810569     0.000235025     0.006810654     0.000083749     0.519817000
    0.164000     0.006810654     0.000083749     0.006810731     0.000103604     0.514440000
    0.165000     0.006810731     0.000103604     0.006810807    -0.000124992     0.509041000
    0.166000     0.006810807    -0.000124992     0.006810903     0.000196065     0.503623000
    0.167000     0.006810903     0.000196065     0.006810959    -0.000112298     0.498185000
    0.168000     0.006810959    -0.000112298     0.006811012     0.000149666     0.492727000
    0.169000     0.006811012     0.000149666     0.006811057     0.000158392     0.487250000
    0.170000     0.006811057     0.000158392     0.006811096    -0.000089954     0.481754000
    0.171000     0.006811096    -0.000089954     0.006811139     0.000217191     0.476238000
    0.172000     0.006811139     0.000217191     0.006811163    -0.000138431     0.470704000
    0.173000     0.006811163    -0.000138431     0.006811186     0.000063070     0.465151000
    0.174000     0.006811186     0.000063070     0.006811202    -0.000002376     0.459580000
    0.175000     0.006811202    -0.000002376     0.006811213     0.000074710     0.453990000
    0.176000     0.006811213     0.000074710     0.006811212    -0.000112729     0.448383000
    0.177000     0.006811212    -0.000112729     0.006811193    -0.000148035     0.442758000
    0.178000     0.006811193    -0.000148035     0.006811178    -0.000058122     0.437116000
    0.179000     0.006811178    -0.000058122     0.006811158     0.000167377     0.431456000
    0.180000     0.006811158     0.000167377     0.006811138     0.000106559     0.425779000
    0.181000     0.006811138     0.000106559     0.006811107    -0.000232112     0.420086000
    0.182000     0.006811107    -0.000232112     0.006811075    -0.000034315     0.414376000
    0.183000     0.006811075    -0.000034315     0.006811028    -0.000113223     0.408649000
    0.184000     0.006811028    -0.000113223     0.006810970    -0.000063650     0.402906000
    0.185000     0.006810970    -0.000063650     0.006810915     0.000100974     0.397148000
    0.186000     0.006810915     0.000100974     0.006810879    -0.000051186     0.391374000
    0.187000     0.006810879    -0.000051186     0.006810800    -0.000050573     0.385584000
    0.188000     0.006810800    -0.000050573     0.006810721     0.000063086     0.379779000
    0.189000     0.006810721     0.000063086     0.006810629    -0.000114054     0.373959000
    0.190000     0.006810629    -0.000114054     0.006810534    -0.000180496     0.368125000
    0.191000     0.006810534    -0.000180496     0.006810424    -0.000126633     0.362275000
    0.192000     0.006810424    -0.000126633     0.006810317     0.000027433     0.356412000
    0.193000     0.006810317     0.000027433     0.006810201    -0.000120676     0.350534000
    0.194000     0.006810201    -0.000120676     0.006810071    -0.000154542     0.344643000
    0.195000     0.006810071    -0.000154542     0.006809941    -0.000088484     0.338738000
    0.196000     0.006809941    -0.000088484     0.006809798    -0.000326446     0.332820000
    0.197000     0.006809798    -0.000326446     0.006809652    -0.000054245     0.326888000
    0.198000     0.006809652    -0.000054245     0.006809500    -0.000094533     0.320944000
    0.199000     0.006809500    -0.000094533     0.006809347    -0.000042163     0.314987000
    0.200000     0.006809347    -0.000042163     0.006809178    -0.000296932     0.309017000
    0.201000     0.006809178    -0.000296932     0.006809012    -0.000051768     0.303035000
    0.202000     0.006809012    -0.000051768     0.006808831    -0.000118533     0.297042000
    0.203000     0.006808831    -0.000118533     0.006808647    -0.000095905     0.291036000
    0.204000     0.006808647    -0.000095905     0.006808486    -0.000009283     0.285019000
    0.205000     0.006808486    -0.000009283     0.006808263    -0.000195593     0.278991000
    0.206000     0.006808263    -0.000195593     0.006807902    -0.000581086     0.272952000
    0.207000     0.006807902    -0.000581086     0.006807026    -0.001183786     0.266902000
    0.208000     0.006807026    -0.001183786     0.006805507    -0.001854136     0.260842000
    0.209000     0.006805507    -0.001854136     0.006803305    -0.002543507     0.254771000
    0.210000     0.006803305    -0.002543507     0.006800412    -0.003236212     0.248690000
    0.211000     0.006800412    -0.003236212     0.006796827    -0.003927193     0.242599000
    0.212000     0.006796827    -0.003927193     0.006792552    -0.004614822     0.236499000
