Voltage Amplitude:  5  Volts
Voltage Frequency:  2  Hz
Phase Difference:  90.0  Degrees

        time            y(t)            v(t)          y(t+1)          v(t+1)         Voltage
    0.000000     0.000000000     0.000000000     0.000027718     0.138671462     5.000000000
    0.000500     0.000027718     0.138671462     0.000140267     0.300379721     4.999901000
    0.001000     0.000140267     0.300379721     0.000318670     0.403291548     4.999605000
    0.001500     0.000318670     0.403291548     0.000536786     0.463000257     4.999112000
    0.002000     0.000536786     0.463000257     0.000777592     0.496620276     4.998421000
    0.002500     0.000777592     0.496620276     0.001031031     0.515058618     4.997533000
    0.003000     0.001031031     0.515058618     0.001291275     0.524731176     4.996447000
    0.003500     0.001291275     0.524731176     0.001554964     0.529349311     4.995165000
    0.004000     0.001554964     0.529349311     0.001820159     0.531051939     4.993685000
    0.004500     0.001820159     0.531051939     0.002085742     0.531070717     4.992008000
    0.005000     0.002085742     0.531070717     0.002351066     0.530114748     4.990134000
    0.005500     0.002351066     0.530114748     0.002615757     0.528592271     4.988063000
    0.006000     0.002615757     0.528592271     0.002879595     0.526738325     4.985795000
    0.006500     0.002879595     0.526738325     0.003142453     0.524688241     4.983330000
    0.007000     0.003142453     0.524688241     0.003404254     0.522519948     4.980668000
    0.007500     0.003404254     0.522519948     0.003664950     0.520278334     4.977810000
    0.008000     0.003664950     0.520278334     0.003924513     0.517989265     4.974755000
    0.008500     0.003924513     0.517989265     0.004182922     0.515667655     4.971504000
    0.009000     0.004182922     0.515667655     0.004440165     0.513322118     4.968057000
    0.009500     0.004440165     0.513322118     0.004696230     0.510957637     4.964413000
    0.010000     0.004696230     0.510957637     0.004951108     0.508577108     4.960574000
    0.010500     0.004951108     0.508577108     0.005204792     0.506182225     4.956538000
    0.011000     0.005204792     0.506182225     0.005457276     0.503773987     4.952307000
    0.011500     0.005457276     0.503773987     0.005708552     0.501353000     4.947881000
    0.012000     0.005708552     0.501353000     0.005958615     0.498919636     4.943259000
    0.012500     0.005958615     0.498919636     0.006207458     0.496474140     4.938442000
    0.013000     0.006207458     0.496474140     0.006455075     0.494016676     4.933430000
    0.013500     0.006455075     0.494016676     0.006701460     0.491547370     4.928223000
    0.014000     0.006701460     0.491547370     0.006946608     0.489066320     4.922822000
    0.014500     0.006946608     0.489066320     0.007190512     0.486573610     4.917226000
    0.015000     0.007190512     0.486573610     0.007433167     0.484069318     4.911436000
    0.015500     0.007433167     0.484069318     0.007674567     0.481553514     4.905453000
    0.016000     0.007674567     0.481553514     0.007914706     0.479026270     4.899275000
    0.016500     0.007914706     0.479026270     0.008153578     0.476487654     4.892905000
    0.017000     0.008153578     0.476487654     0.008391179     0.473937733     4.886341000
    0.017500     0.008391179     0.473937733     0.008627502     0.471376576     4.879584000
    0.018000     0.008627502     0.471376576     0.008862541     0.468804250     4.872634000
    0.018500     0.008862541     0.468804250     0.009096291     0.466220824     4.865493000
    0.019000     0.009096291     0.466220824     0.009328747     0.463626366     4.858159000
    0.019500     0.009328747     0.463626366     0.009559903     0.461020944     4.850633000
    0.020000     0.009559903     0.461020944     0.009789753     0.458404627     4.842916000
    0.020500     0.009789753     0.458404627     0.010018292     0.455777485     4.835007000
    0.021000     0.010018292     0.455777485     0.010245515     0.453139587     4.826908000
    0.021500     0.010245515     0.453139587     0.010471417     0.450491003     4.818618000
    0.022000     0.010471417     0.450491003     0.010695991     0.447831804     4.810138000
    0.022500     0.010695991     0.447831804     0.010919234     0.445162059     4.801468000
    0.023000     0.010919234     0.445162059     0.011141138     0.442481841     4.792609000
    0.023500     0.011141138     0.442481841     0.011361700     0.439791219     4.783560000
    0.024000     0.011361700     0.439791219     0.011580914     0.437090266     4.774323000
    0.024500     0.011580914     0.437090266     0.011798775     0.434379054     4.764897000
    0.025000     0.011798775     0.434379054     0.012015278     0.431657655     4.755283000
    0.025500     0.012015278     0.431657655     0.012230418     0.428926142     4.745481000
    0.026000     0.012230418     0.428926142     0.012444189     0.426184587     4.735492000
    0.026500     0.012444189     0.426184587     0.012656587     0.423433064     4.725315000
    0.027000     0.012656587     0.423433064     0.012867607     0.420671646     4.714953000
    0.027500     0.012867607     0.420671646     0.013077243     0.417900408     4.704404000
    0.028000     0.013077243     0.417900408     0.013285491     0.415119423     4.693669000
    0.028500     0.013285491     0.415119423     0.013492347     0.412328767     4.682749000
    0.029000     0.013492347     0.412328767     0.013697805     0.409528513     4.671645000
    0.029500     0.013697805     0.409528513     0.013901860     0.406718738     4.660356000
    0.030000     0.013901860     0.406718738     0.014104508     0.403899517     4.648882000
    0.030500     0.014104508     0.403899517     0.014305744     0.401070925     4.637226000
    0.031000     0.014305744     0.401070925     0.014505563     0.398233039     4.625386000
    0.031500     0.014505563     0.398233039     0.014703961     0.395385936     4.613364000
    0.032000     0.014703961     0.395385936     0.014900933     0.392529692     4.601159000
    0.032500     0.014900933     0.392529692     0.015096475     0.389664384     4.588773000
    0.033000     0.015096475     0.389664384     0.015290582     0.386790090     4.576206000
    0.033500     0.015290582     0.386790090     0.015483249     0.383906887     4.563458000
    0.034000     0.015483249     0.383906887     0.015674473     0.381014854     4.550530000
    0.034500     0.015674473     0.381014854     0.015864248     0.378114069     4.537422000
    0.035000     0.015864248     0.378114069     0.016052571     0.375204611     4.524135000
    0.035500     0.016052571     0.375204611     0.016239437     0.372286558     4.510670000
    0.036000     0.016239437     0.372286558     0.016424841     0.369359990     4.497026000
    0.036500     0.016424841     0.369359990     0.016608780     0.366424987     4.483205000
    0.037000     0.016608780     0.366424987     0.016791250     0.363481628     4.469207000
    0.037500     0.016791250     0.363481628     0.016972246     0.360529993     4.455033000
    0.038000     0.016972246     0.360529993     0.017151764     0.357570164     4.440682000
    0.038500     0.017151764     0.357570164     0.017329800     0.354602220     4.426157000
    0.039000     0.017329800     0.354602220     0.017506350     0.351626244     4.411456000
    0.039500     0.017506350     0.351626244     0.017681410     0.348642316     4.396582000
    0.040000     0.017681410     0.348642316     0.017854976     0.345650518     4.381533000
    0.040500     0.017854976     0.345650518     0.018027044     0.342650931     4.366312000
    0.041000     0.018027044     0.342650931     0.018197611     0.339643640     4.350919000
    0.041500     0.018197611     0.339643640     0.018366672     0.336628725     4.335354000
    0.042000     0.018366672     0.336628725     0.018534223     0.333606270     4.319617000
    0.042500     0.018534223     0.333606270     0.018700261     0.330576358     4.303710000
    0.043000     0.018700261     0.330576358     0.018864783     0.327539072     4.287633000
    0.043500     0.018864783     0.327539072     0.019027784     0.324494496     4.271387000
    0.044000     0.019027784     0.324494496     0.019189261     0.321442714     4.254972000
    0.044500     0.019189261     0.321442714     0.019349210     0.318383811     4.238390000
    0.045000     0.019349210     0.318383811     0.019507628     0.315317871     4.221640000
    0.045500     0.019507628     0.315317871     0.019664512     0.312244978     4.204723000
    0.046000     0.019664512     0.312244978     0.019819857     0.309165219     4.187640000
    0.046500     0.019819857     0.309165219     0.019973660     0.306078678     4.170392000
    0.047000     0.019973660     0.306078678     0.020125919     0.302985441     4.152979000
    0.047500     0.020125919     0.302985441     0.020276629     0.299885594     4.135403000
    0.048000     0.020276629     0.299885594     0.020425788     0.296779224     4.117663000
    0.048500     0.020425788     0.296779224     0.020573392     0.293666417     4.099761000
    0.049000     0.020573392     0.293666417     0.020719438     0.290547259     4.081696000
    0.049500     0.020719438     0.290547259     0.020863922     0.287421838     4.063471000
    0.050000     0.020863922     0.287421838     0.021006843     0.284290242     4.045085000
    0.050500     0.021006843     0.284290242     0.021148196     0.281152557     4.026539000
    0.051000     0.021148196     0.281152557     0.021287979     0.278008872     4.007835000
    0.051500     0.021287979     0.278008872     0.021426188     0.274859275     3.988972000
    0.052000     0.021426188     0.274859275     0.021562821     0.271703855     3.969952000
    0.052500     0.021562821     0.271703855     0.021697875     0.268542700     3.950775000
    0.053000     0.021697875     0.268542700     0.021831347     0.265375898     3.931442000
    0.053500     0.021831347     0.265375898     0.021963234     0.262203540     3.911954000
    0.054000     0.021963234     0.262203540     0.022093534     0.259025715     3.892312000
    0.054500     0.022093534     0.259025715     0.022222243     0.255842513     3.872515000
    0.055000     0.022222243     0.255842513     0.022349360     0.252654023     3.852566000
    0.055500     0.022349360     0.252654023     0.022474880     0.249460336     3.832465000
    0.056000     0.022474880     0.249460336     0.022598803     0.246261543     3.812213000
    0.056500     0.022598803     0.246261543     0.022721125     0.243057734     3.791810000
    0.057000     0.022721125     0.243057734     0.022841844     0.239849001     3.771257000
    0.057500     0.022841844     0.239849001     0.022960957     0.236635434     3.750555000
    0.058000     0.022960957     0.236635434     0.023078463     0.233417125     3.729706000
    0.058500     0.023078463     0.233417125     0.023194358     0.230194167     3.708709000
    0.059000     0.023194358     0.230194167     0.023308640     0.226966651     3.687566000
    0.059500     0.023308640     0.226966651     0.023421307     0.223734669     3.666277000
    0.060000     0.023421307     0.223734669     0.023532358     0.220498314     3.644843000
    0.060500     0.023532358     0.220498314     0.023641789     0.217257680     3.623266000
    0.061000     0.023641789     0.217257680     0.023749598     0.214012858     3.601545000
    0.061500     0.023749598     0.214012858     0.023855785     0.210763943     3.579682000
    0.062000     0.023855785     0.210763943     0.023960345     0.207511027     3.557678000
    0.062500     0.023960345     0.207511027     0.024063279     0.204254206     3.535534000
    0.063000     0.024063279     0.204254206     0.024164583     0.200993572     3.513250000
    0.063500     0.024164583     0.200993572     0.024264255     0.197729220     3.490827000
    0.064000     0.024264255     0.197729220     0.024362295     0.194461245     3.468267000
    0.064500     0.024362295     0.194461245     0.024458700     0.191189741     3.445569000
    0.065000     0.024458700     0.191189741     0.024553468     0.187914804     3.422736000
    0.065500     0.024553468     0.187914804     0.024646598     0.184636528     3.399767000
    0.066000     0.024646598     0.184636528     0.024738087     0.181355009     3.376664000
    0.066500     0.024738087     0.181355009     0.024827936     0.178070343     3.353428000
    0.067000     0.024827936     0.178070343     0.024916141     0.174782626     3.330059000
    0.067500     0.024916141     0.174782626     0.025002701     0.171491954     3.306559000
    0.068000     0.025002701     0.171491954     0.025087616     0.168198423     3.282929000
    0.068500     0.025087616     0.168198423     0.025170883     0.164902130     3.259169000
    0.069000     0.025170883     0.164902130     0.025252501     0.161603171     3.235280000
    0.069500     0.025252501     0.161603171     0.025332469     0.158301645     3.211263000
    0.070000     0.025332469     0.158301645     0.025410786     0.154997647     3.187120000
    0.070500     0.025410786     0.154997647     0.025487450     0.151691277     3.162851000
    0.071000     0.025487450     0.151691277     0.025562460     0.148382630     3.138457000
    0.071500     0.025562460     0.148382630     0.025635816     0.145071806     3.113939000
    0.072000     0.025635816     0.145071806     0.025707515     0.141758902     3.089298000
    0.072500     0.025707515     0.141758902     0.025777558     0.138444018     3.064535000
    0.073000     0.025777558     0.138444018     0.025845942     0.135127250     3.039651000
    0.073500     0.025845942     0.135127250     0.025912668     0.131808699     3.014648000
    0.074000     0.025912668     0.131808699     0.025977734     0.128488463     2.989525000
    0.074500     0.025977734     0.128488463     0.026041139     0.125166642     2.964284000
    0.075000     0.026041139     0.125166642     0.026102884     0.121843334     2.938926000
    0.075500     0.026102884     0.121843334     0.026162966     0.118518641     2.913452000
    0.076000     0.026162966     0.118518641     0.026221386     0.115192660     2.887864000
    0.076500     0.026221386     0.115192660     0.026278142     0.111865493     2.862161000
    0.077000     0.026278142     0.111865493     0.026333234     0.108537240     2.836345000
    0.077500     0.026333234     0.108537240     0.026386662     0.105208000     2.810417000
    0.078000     0.026386662     0.105208000     0.026438425     0.101877876     2.784378000
    0.078500     0.026438425     0.101877876     0.026488523     0.098546967     2.758229000
    0.079000     0.026488523     0.098546967     0.026536956     0.095215374     2.731972000
    0.079500     0.026536956     0.095215374     0.026583722     0.091883200     2.705606000
    0.080000     0.026583722     0.091883200     0.026628822     0.088550544     2.679134000
    0.080500     0.026628822     0.088550544     0.026672256     0.085217510     2.652556000
    0.081000     0.026672256     0.085217510     0.026714023     0.081884198     2.625873000
    0.081500     0.026714023     0.081884198     0.026754123     0.078550710     2.599087000
    0.082000     0.026754123     0.078550710     0.026792557     0.075217149     2.572198000
    0.082500     0.026792557     0.075217149     0.026829324     0.071883617     2.545207000
    0.083000     0.026829324     0.071883617     0.026864424     0.068550217     2.518116000
    0.083500     0.026864424     0.068550217     0.026897857     0.065217051     2.490926000
    0.084000     0.026897857     0.065217051     0.026929624     0.061884221     2.463637000
    0.084500     0.026929624     0.061884221     0.026959725     0.058551832     2.436251000
    0.085000     0.026959725     0.058551832     0.026988160     0.055219986     2.408768000
    0.085500     0.026988160     0.055219986     0.027014928     0.051888786     2.381191000
    0.086000     0.027014928     0.051888786     0.027040032     0.048558336     2.353520000
    0.086500     0.027040032     0.048558336     0.027063470     0.045228741     2.325755000
    0.087000     0.027063470     0.045228741     0.027085244     0.041900102     2.297899000
    0.087500     0.027085244     0.041900102     0.027105354     0.038572526     2.269952000
    0.088000     0.027105354     0.038572526     0.027123800     0.035246115     2.241916000
    0.088500     0.027123800     0.035246115     0.027140584     0.031920974     2.213791000
    0.089000     0.027140584     0.031920974     0.027155705     0.028597207     2.185579000
    0.089500     0.027155705     0.028597207     0.027169164     0.025274920     2.157280000
    0.090000     0.027169164     0.025274920     0.027180963     0.021954216     2.128896000
    0.090500     0.027180963     0.021954216     0.027191102     0.018635202     2.100429000
    0.091000     0.027191102     0.018635202     0.027199582     0.015317981     2.071878000
    0.091500     0.027199582     0.015317981     0.027206404     0.012002659     2.043245000
    0.092000     0.027206404     0.012002659     0.027211569     0.008689342     2.014532000
    0.092500     0.027211569     0.008689342     0.027215077     0.005378134     1.985739000
    0.093000     0.027215077     0.005378134     0.027216931     0.002069142     1.956868000
    0.093500     0.027216931     0.002069142     0.027217263     0.000085619     1.927920000
    0.094000     0.027217263     0.000085619     0.027217290     0.000112660     1.898895000
    0.094500     0.027217290     0.000112660     0.027217313     0.000086781     1.869796000
    0.095000     0.027217313     0.000086781     0.027217324    -0.000014698     1.840623000
    0.095500     0.027217324    -0.000014698     0.027217324     0.000002881     1.811377000
    0.096000     0.027217324     0.000002881     0.027217316    -0.000072765     1.782059000
    0.096500     0.027217316    -0.000072765     0.027217300    -0.000043000     1.752672000
    0.097000     0.027217300    -0.000043000     0.027217275    -0.000116114     1.723215000
    0.097500     0.027217275    -0.000116114     0.027217243    -0.000094591     1.693690000
    0.098000     0.027217243    -0.000094591     0.027217204    -0.000188008     1.664098000
    0.098500     0.027217204    -0.000188008     0.027217154    -0.000193717     1.634440000
    0.099000     0.027217154    -0.000193717     0.027216782    -0.001475314     1.604718000
    0.099500     0.027216782    -0.001475314     0.027215520    -0.003664774     1.574933000
    0.100000     0.027215520    -0.003664774     0.027213018    -0.006378311     1.545085000
    0.100500     0.027213018    -0.006378311     0.027209078    -0.009390165     1.515176000
    0.101000     0.027209078    -0.009390165     0.027203585    -0.012570464     1.485208000
    0.101500     0.027203585    -0.012570464     0.027196476    -0.015844887     1.455181000
    0.102000     0.027196476    -0.015844887     0.027187715    -0.019170942     1.425096000
    0.102500     0.027187715    -0.019170942     0.027177283    -0.022524328     1.394956000
    0.103000     0.027177283    -0.022524328     0.027165171    -0.025891126     1.364760000
    0.103500     0.027165171    -0.025891126     0.027151375    -0.029263349     1.334510000
    0.104000     0.027151375    -0.029263349     0.027135891    -0.032636394     1.304208000
    0.104500     0.027135891    -0.032636394     0.027118722    -0.036007586     1.273854000
    0.105000     0.027118722    -0.036007586     0.027099867    -0.039375356     1.243449000
    0.105500     0.027099867    -0.039375356     0.027079330    -0.042738762     1.212996000
    0.106000     0.027079330    -0.042738762     0.027057113    -0.046097221     1.182495000
