Voltage Amplitude:  7  Volts
Voltage Frequency:  2  Hz
Phase Difference:  180.0  Degrees

        time            y(t)            v(t)          y(t+1)          v(t+1)         Voltage
    0.000000     0.000000000     0.000000000     0.000000002    -0.000076895     0.000000000
    0.000500     0.000000002    -0.000076895    -0.000000013    -0.000002776    -0.043982000
    0.001000    -0.000000013    -0.000002776    -0.000000040    -0.000105728    -0.087962000
    0.001500    -0.000000040    -0.000105728    -0.000000079    -0.000024173    -0.131939000
    0.002000    -0.000000079    -0.000024173    -0.000000211    -0.000717882    -0.175911000
    0.002500    -0.000000211    -0.000717882    -0.000001127    -0.003172526    -0.219875000
    0.003000    -0.000001127    -0.003172526    -0.000003590    -0.006786728    -0.263831000
    0.003500    -0.000003590    -0.006786728    -0.000008042    -0.011056923    -0.307777000
    0.004000    -0.000008042    -0.011056923    -0.000014729    -0.015690492    -0.351710000
    0.004500    -0.000014729    -0.015690492    -0.000023788    -0.020520107    -0.395630000
    0.005000    -0.000023788    -0.020520107    -0.000035290    -0.025450445    -0.439534000
    0.005500    -0.000035290    -0.025450445    -0.000049271    -0.030427235    -0.483420000
    0.006000    -0.000049271    -0.030427235    -0.000065745    -0.035419561    -0.527288000
    0.006500    -0.000065745    -0.035419561    -0.000084715    -0.040409795    -0.571134000
    0.007000    -0.000084715    -0.040409795    -0.000106177    -0.045387863    -0.614958000
    0.007500    -0.000106177    -0.045387863    -0.000130125    -0.050347988    -0.658758000
    0.008000    -0.000130125    -0.050347988    -0.000156547    -0.055286841    -0.702532000
    0.008500    -0.000156547    -0.055286841    -0.000185432    -0.060202483    -0.746278000
    0.009000    -0.000185432    -0.060202483    -0.000216770    -0.065093767    -0.789995000
    0.009500    -0.000216770    -0.065093767    -0.000250546    -0.069959999    -0.833680000
    0.010000    -0.000250546    -0.069959999    -0.000286750    -0.074800740    -0.877333000
    0.010500    -0.000286750    -0.074800740    -0.000325367    -0.079615700    -0.920951000
    0.011000    -0.000325367    -0.079615700    -0.000366385    -0.084404672    -0.964532000
    0.011500    -0.000366385    -0.084404672    -0.000409791    -0.089167499    -1.008075000
    0.012000    -0.000409791    -0.089167499    -0.000455572    -0.093904048    -1.051579000
    0.012500    -0.000455572    -0.093904048    -0.000503714    -0.098614207    -1.095041000
    0.013000    -0.000503714    -0.098614207    -0.000554205    -0.103297872    -1.138460000
    0.013500    -0.000554205    -0.103297872    -0.000607031    -0.107954945    -1.181834000
    0.014000    -0.000607031    -0.107954945    -0.000662179    -0.112585332    -1.225161000
    0.014500    -0.000662179    -0.112585332    -0.000719635    -0.117188941    -1.268440000
    0.015000    -0.000719635    -0.117188941    -0.000779386    -0.121765684    -1.311669000
    0.015500    -0.000779386    -0.121765684    -0.000841419    -0.126315473    -1.354846000
    0.016000    -0.000841419    -0.126315473    -0.000905720    -0.130838222    -1.397970000
    0.016500    -0.000905720    -0.130838222    -0.000972275    -0.135333847    -1.441038000
    0.017000    -0.000972275    -0.135333847    -0.001041072    -0.139802263    -1.484050000
    0.017500    -0.001041072    -0.139802263    -0.001112095    -0.144243389    -1.527003000
    0.018000    -0.001112095    -0.144243389    -0.001185333    -0.148657144    -1.569895000
    0.018500    -0.001185333    -0.148657144    -0.001260770    -0.153043447    -1.612726000
    0.019000    -0.001260770    -0.153043447    -0.001338393    -0.157402220    -1.655493000
    0.019500    -0.001338393    -0.157402220    -0.001418189    -0.161733385    -1.698195000
    0.020000    -0.001418189    -0.161733385    -0.001500144    -0.166036865    -1.740829000
    0.020500    -0.001500144    -0.166036865    -0.001584243    -0.170312586    -1.783395000
    0.021000    -0.001584243    -0.170312586    -0.001670473    -0.174560473    -1.825891000
    0.021500    -0.001670473    -0.174560473    -0.001758820    -0.178780454    -1.868314000
    0.022000    -0.001758820    -0.178780454    -0.001849270    -0.182972455    -1.910664000
    0.022500    -0.001849270    -0.182972455    -0.001941809    -0.187136407    -1.952938000
    0.023000    -0.001941809    -0.187136407    -0.002036422    -0.191272239    -1.995135000
    0.023500    -0.002036422    -0.191272239    -0.002133097    -0.195379884    -2.037253000
    0.024000    -0.002133097    -0.195379884    -0.002231818    -0.199459273    -2.079291000
    0.024500    -0.002231818    -0.199459273    -0.002332572    -0.203510342    -2.121247000
    0.025000    -0.002332572    -0.203510342    -0.002435344    -0.207533024    -2.163119000
    0.025500    -0.002435344    -0.207533024    -0.002540120    -0.211527256    -2.204906000
    0.026000    -0.002540120    -0.211527256    -0.002646886    -0.215492976    -2.246605000
    0.026500    -0.002646886    -0.215492976    -0.002755628    -0.219430120    -2.288216000
    0.027000    -0.002755628    -0.219430120    -0.002866331    -0.223338630    -2.329737000
    0.027500    -0.002866331    -0.223338630    -0.002978981    -0.227218446    -2.371165000
    0.028000    -0.002978981    -0.227218446    -0.003093564    -0.231069509    -2.412500000
    0.028500    -0.003093564    -0.231069509    -0.003210065    -0.234891762    -2.453740000
    0.029000    -0.003210065    -0.234891762    -0.003328470    -0.238685150    -2.494883000
    0.029500    -0.003328470    -0.238685150    -0.003448764    -0.242449618    -2.535928000
    0.030000    -0.003448764    -0.242449618    -0.003570934    -0.246185112    -2.576872000
    0.030500    -0.003570934    -0.246185112    -0.003694963    -0.249891580    -2.617714000
    0.031000    -0.003694963    -0.249891580    -0.003820839    -0.253568970    -2.658454000
    0.031500    -0.003820839    -0.253568970    -0.003948546    -0.257217232    -2.699088000
    0.032000    -0.003948546    -0.257217232    -0.004078069    -0.260836317    -2.739616000
    0.032500    -0.004078069    -0.260836317    -0.004209395    -0.264426177    -2.780035000
    0.033000    -0.004209395    -0.264426177    -0.004342508    -0.267986764    -2.820345000
    0.033500    -0.004342508    -0.267986764    -0.004477395    -0.271518035    -2.860544000
    0.034000    -0.004477395    -0.271518035    -0.004614039    -0.275019942    -2.900629000
    0.034500    -0.004614039    -0.275019942    -0.004752427    -0.278492445    -2.940600000
    0.035000    -0.004752427    -0.278492445    -0.004892544    -0.281935498    -2.980455000
    0.035500    -0.004892544    -0.281935498    -0.005034375    -0.285349063    -3.020192000
    0.036000    -0.005034375    -0.285349063    -0.005177905    -0.288733097    -3.059810000
    0.036500    -0.005177905    -0.288733097    -0.005323120    -0.292087564    -3.099308000
    0.037000    -0.005323120    -0.292087564    -0.005470004    -0.295412423    -3.138683000
    0.037500    -0.005470004    -0.295412423    -0.005618544    -0.298707639    -3.177933000
    0.038000    -0.005618544    -0.298707639    -0.005768724    -0.301973176    -3.217059000
    0.038500    -0.005768724    -0.301973176    -0.005920528    -0.305208998    -3.256058000
    0.039000    -0.005920528    -0.305208998    -0.006073944    -0.308415074    -3.294928000
    0.039500    -0.006073944    -0.308415074    -0.006228954    -0.311591369    -3.333667000
    0.040000    -0.006228954    -0.311591369    -0.006385546    -0.314737854    -3.372276000
    0.040500    -0.006385546    -0.314737854    -0.006543703    -0.317854497    -3.410751000
    0.041000    -0.006543703    -0.317854497    -0.006703411    -0.320941269    -3.449091000
    0.041500    -0.006703411    -0.320941269    -0.006864655    -0.323998142    -3.487296000
    0.042000    -0.006864655    -0.323998142    -0.007027419    -0.327025090    -3.525362000
    0.042500    -0.007027419    -0.327025090    -0.007191690    -0.330022086    -3.563290000
    0.043000    -0.007191690    -0.330022086    -0.007357451    -0.332989105    -3.601077000
    0.043500    -0.007357451    -0.332989105    -0.007524689    -0.335926124    -3.638721000
    0.044000    -0.007524689    -0.335926124    -0.007693387    -0.338833120    -3.676222000
    0.044500    -0.007693387    -0.338833120    -0.007863531    -0.341710071    -3.713578000
    0.045000    -0.007863531    -0.341710071    -0.008035106    -0.344556957    -3.750788000
    0.045500    -0.008035106    -0.344556957    -0.008208097    -0.347373758    -3.787849000
    0.046000    -0.008208097    -0.347373758    -0.008382489    -0.350160455    -3.824760000
    0.046500    -0.008382489    -0.350160455    -0.008558267    -0.352917031    -3.861521000
    0.047000    -0.008558267    -0.352917031    -0.008735415    -0.355643470    -3.898129000
    0.047500    -0.008735415    -0.355643470    -0.008913919    -0.358339756    -3.934584000
    0.048000    -0.008913919    -0.358339756    -0.009093763    -0.361005875    -3.970883000
    0.048500    -0.009093763    -0.361005875    -0.009274933    -0.363641813    -4.007025000
    0.049000    -0.009274933    -0.363641813    -0.009457413    -0.366247559    -4.043009000
    0.049500    -0.009457413    -0.366247559    -0.009641188    -0.368823101    -4.078833000
    0.050000    -0.009641188    -0.368823101    -0.009826244    -0.371368429    -4.114497000
    0.050500    -0.009826244    -0.371368429    -0.010012564    -0.373883534    -4.149998000
    0.051000    -0.010012564    -0.373883534    -0.010200135    -0.376368407    -4.185335000
    0.051500    -0.010200135    -0.376368407    -0.010388940    -0.378823041    -4.220507000
    0.052000    -0.010388940    -0.378823041    -0.010578965    -0.381247431    -4.255512000
    0.052500    -0.010578965    -0.381247431    -0.010770194    -0.383641571    -4.290349000
    0.053000    -0.010770194    -0.383641571    -0.010962613    -0.386005456    -4.325017000
    0.053500    -0.010962613    -0.386005456    -0.011156207    -0.388339084    -4.359514000
    0.054000    -0.011156207    -0.388339084    -0.011350959    -0.390642452    -4.393840000
    0.054500    -0.011350959    -0.390642452    -0.011546855    -0.392915560    -4.427991000
    0.055000    -0.011546855    -0.392915560    -0.011743881    -0.395158407    -4.461968000
    0.055500    -0.011743881    -0.395158407    -0.011942020    -0.397370993    -4.495769000
    0.056000    -0.011942020    -0.397370993    -0.012141258    -0.399553321    -4.529392000
    0.056500    -0.012141258    -0.399553321    -0.012341579    -0.401705393    -4.562836000
    0.057000    -0.012341579    -0.401705393    -0.012542969    -0.403827212    -4.596100000
    0.057500    -0.012542969    -0.403827212    -0.012745412    -0.405918785    -4.629183000
    0.058000    -0.012745412    -0.405918785    -0.012948893    -0.407980115    -4.662083000
    0.058500    -0.012948893    -0.407980115    -0.013153397    -0.410011209    -4.694799000
    0.059000    -0.013153397    -0.410011209    -0.013358909    -0.412012076    -4.727330000
    0.059500    -0.013358909    -0.412012076    -0.013565414    -0.413982723    -4.759674000
    0.060000    -0.013565414    -0.413982723    -0.013772897    -0.415923159    -4.791830000
    0.060500    -0.013772897    -0.415923159    -0.013981342    -0.417833396    -4.823797000
    0.061000    -0.013981342    -0.417833396    -0.014190734    -0.419713443    -4.855573000
    0.061500    -0.014190734    -0.419713443    -0.014401060    -0.421563314    -4.887158000
    0.062000    -0.014401060    -0.421563314    -0.014612302    -0.423383021    -4.918550000
    0.062500    -0.014612302    -0.423383021    -0.014824447    -0.425172578    -4.949747000
    0.063000    -0.014824447    -0.425172578    -0.015037478    -0.426932000    -4.980750000
    0.063500    -0.015037478    -0.426932000    -0.015251382    -0.428661303    -5.011555000
    0.064000    -0.015251382    -0.428661303    -0.015466143    -0.430360504    -5.042163000
    0.064500    -0.015466143    -0.430360504    -0.015681746    -0.432029619    -5.072572000
    0.065000    -0.015681746    -0.432029619    -0.015898176    -0.433668668    -5.102780000
    0.065500    -0.015898176    -0.433668668    -0.016115418    -0.435277669    -5.132787000
    0.066000    -0.016115418    -0.435277669    -0.016333457    -0.436856643    -5.162592000
    0.066500    -0.016333457    -0.436856643    -0.016552277    -0.438405611    -5.192192000
    0.067000    -0.016552277    -0.438405611    -0.016771865    -0.439924595    -5.221588000
    0.067500    -0.016771865    -0.439924595    -0.016992205    -0.441413618    -5.250777000
    0.068000    -0.016992205    -0.441413618    -0.017213281    -0.442872703    -5.279760000
    0.068500    -0.017213281    -0.442872703    -0.017435079    -0.444301874    -5.308533000
    0.069000    -0.017435079    -0.444301874    -0.017657585    -0.445701158    -5.337098000
    0.069500    -0.017657585    -0.445701158    -0.017880783    -0.447070580    -5.365451000
    0.070000    -0.017880783    -0.447070580    -0.018104657    -0.448410167    -5.393593000
    0.070500    -0.018104657    -0.448410167    -0.018329194    -0.449719947    -5.421521000
    0.071000    -0.018329194    -0.449719947    -0.018554379    -0.450999949    -5.449236000
    0.071500    -0.018554379    -0.450999949    -0.018780196    -0.452250203    -5.476736000
    0.072000    -0.018780196    -0.452250203    -0.019006630    -0.453470738    -5.504019000
    0.072500    -0.019006630    -0.453470738    -0.019233668    -0.454661586    -5.531085000
    0.073000    -0.019233668    -0.454661586    -0.019461293    -0.455822779    -5.557933000
    0.073500    -0.019461293    -0.455822779    -0.019689491    -0.456954349    -5.584561000
    0.074000    -0.019689491    -0.456954349    -0.019918248    -0.458056330    -5.610969000
    0.074500    -0.019918248    -0.458056330    -0.020147548    -0.459128757    -5.637155000
    0.075000    -0.020147548    -0.459128757    -0.020377377    -0.460171664    -5.663119000
    0.075500    -0.020377377    -0.460171664    -0.020607720    -0.461185087    -5.688859000
    0.076000    -0.020607720    -0.461185087    -0.020838562    -0.462169064    -5.714375000
    0.076500    -0.020838562    -0.462169064    -0.021069889    -0.463123631    -5.739665000
    0.077000    -0.021069889    -0.463123631    -0.021301685    -0.464048827    -5.764728000
    0.077500    -0.021301685    -0.464048827    -0.021533937    -0.464944690    -5.789564000
    0.078000    -0.021533937    -0.464944690    -0.021766630    -0.465811261    -5.814171000
    0.078500    -0.021766630    -0.465811261    -0.021999748    -0.466648580    -5.838549000
    0.079000    -0.021999748    -0.466648580    -0.022233278    -0.467456688    -5.862696000
    0.079500    -0.022233278    -0.467456688    -0.022467204    -0.468235628    -5.886612000
    0.080000    -0.022467204    -0.468235628    -0.022701512    -0.468985441    -5.910295000
    0.080500    -0.022701512    -0.468985441    -0.022936188    -0.469706172    -5.933746000
    0.081000    -0.022936188    -0.469706172    -0.023171217    -0.470397864    -5.956961000
    0.081500    -0.023171217    -0.470397864    -0.023406584    -0.471060563    -5.979942000
    0.082000    -0.023406584    -0.471060563    -0.023642276    -0.471694314    -6.002687000
    0.082500    -0.023642276    -0.471694314    -0.023878277    -0.472299163    -6.025194000
    0.083000    -0.023878277    -0.472299163    -0.024114573    -0.472875158    -6.047464000
    0.083500    -0.024114573    -0.472875158    -0.024351150    -0.473422346    -6.069495000
    0.084000    -0.024351150    -0.473422346    -0.024587993    -0.473940775    -6.091286000
    0.084500    -0.024587993    -0.473940775    -0.024825089    -0.474430495    -6.112837000
    0.085000    -0.024825089    -0.474430495    -0.025062422    -0.474891556    -6.134147000
    0.085500    -0.025062422    -0.474891556    -0.025299978    -0.475324008    -6.155214000
    0.086000    -0.025299978    -0.475324008    -0.025537743    -0.475727902    -6.176039000
    0.086500    -0.025537743    -0.475727902    -0.025775703    -0.476103291    -6.196619000
    0.087000    -0.025775703    -0.476103291    -0.026013843    -0.476450225    -6.216955000
    0.087500    -0.026013843    -0.476450225    -0.026252150    -0.476768760    -6.237046000
    0.088000    -0.026252150    -0.476768760    -0.026490609    -0.477058948    -6.256890000
    0.088500    -0.026490609    -0.477058948    -0.026729206    -0.477320845    -6.276487000
    0.089000    -0.026729206    -0.477320845    -0.026967926    -0.477554505    -6.295837000
    0.089500    -0.026967926    -0.477554505    -0.027206756    -0.477759983    -6.314938000
    0.090000    -0.027206756    -0.477759983    -0.027445682    -0.477937338    -6.333789000
    0.090500    -0.027445682    -0.477937338    -0.027684690    -0.478086624    -6.352391000
    0.091000    -0.027684690    -0.478086624    -0.027923765    -0.478207902    -6.370742000
    0.091500    -0.027923765    -0.478207902    -0.028162894    -0.478301227    -6.388841000
    0.092000    -0.028162894    -0.478301227    -0.028402062    -0.478366660    -6.406688000
    0.092500    -0.028402062    -0.478366660    -0.028641256    -0.478404260    -6.424282000
    0.093000    -0.028641256    -0.478404260    -0.028880462    -0.478414088    -6.441623000
    0.093500    -0.028880462    -0.478414088    -0.029119665    -0.478396203    -6.458709000
    0.094000    -0.029119665    -0.478396203    -0.029358853    -0.478350668    -6.475540000
    0.094500    -0.029358853    -0.478350668    -0.029598011    -0.478277544    -6.492116000
    0.095000    -0.029598011    -0.478277544    -0.029837126    -0.478176894    -6.508435000
    0.095500    -0.029837126    -0.478176894    -0.030076183    -0.478048781    -6.524498000
    0.096000    -0.030076183    -0.478048781    -0.030315169    -0.477893268    -6.540303000
    0.096500    -0.030315169    -0.477893268    -0.030554071    -0.477710421    -6.555849000
    0.097000    -0.030554071    -0.477710421    -0.030792874    -0.477500304    -6.571137000
    0.097500    -0.030792874    -0.477500304    -0.031031566    -0.477262982    -6.586165000
    0.098000    -0.031031566    -0.477262982    -0.031270131    -0.476998521    -6.600934000
    0.098500    -0.031270131    -0.476998521    -0.031508558    -0.476706989    -6.615442000
    0.099000    -0.031508558    -0.476706989    -0.031746832    -0.476388452    -6.629688000
    0.099500    -0.031746832    -0.476388452    -0.031984940    -0.476042978    -6.643673000
    0.100000    -0.031984940    -0.476042978    -0.032222869    -0.475670635    -6.657396000
    0.100500    -0.032222869    -0.475670635    -0.032460605    -0.475271491    -6.670855000
    0.101000    -0.032460605    -0.475271491    -0.032698134    -0.474845618    -6.684052000
    0.101500    -0.032698134    -0.474845618    -0.032935444    -0.474393083    -6.696984000
    0.102000    -0.032935444    -0.474393083    -0.033172520    -0.473913958    -6.709653000
    0.102500    -0.033172520    -0.473913958    -0.033409351    -0.473408313    -6.722056000
    0.103000    -0.033409351    -0.473408313    -0.033645922    -0.472876220    -6.734194000
    0.103500    -0.033645922    -0.472876220    -0.033882220    -0.472317752    -6.746066000
    0.104000    -0.033882220    -0.472317752    -0.034118232    -0.471732979    -6.757671000
    0.104500    -0.034118232    -0.471732979    -0.034353945    -0.471121977    -6.769010000
    0.105000    -0.034353945    -0.471121977    -0.034589347    -0.470484817    -6.780082000
    0.105500    -0.034589347    -0.470484817    -0.034824423    -0.469821574    -6.790886000
    0.106000    -0.034824423    -0.469821574    -0.035059160    -0.469132323    -6.801422000
