Voltage Amplitude:  7  Volts
Voltage Frequency:  0.5  Hz
Phase Difference:  180.0  Degrees

        time            y(t)            v(t)          y(t+1)          v(t+1)         Voltage
    0.000000     0.000000000     0.000000000    -0.000732093    -0.641301559     7.000000000
    0.002000    -0.000732093    -0.641301559    -0.002148046    -0.737033713    -7.000000000
    0.004000    -0.002148046    -0.737033713    -0.003626257    -0.737169250    -7.000000000
    0.006000    -0.003626257    -0.737169250    -0.005090693    -0.726955272    -7.000000000
    0.008000    -0.005090693    -0.726955272    -0.006533319    -0.715763458    -7.000000000
    0.010000    -0.006533319    -0.715763458    -0.007953568    -0.704621126    -7.000000000
    0.012000    -0.007953568    -0.704621126    -0.009351690    -0.693638718    -7.000000000
    0.014000    -0.009351690    -0.693638718    -0.010728018    -0.682825962    -7.000000000
    0.016000    -0.010728018    -0.682825962    -0.012082891    -0.672181561    -7.000000000
    0.018000    -0.012082891    -0.672181561    -0.013416644    -0.661703037    -7.000000000
    0.020000    -0.013416644    -0.661703037    -0.014729604    -0.651387824    -7.000000000
    0.022000    -0.014729604    -0.651387824    -0.016022097    -0.641233379    -7.000000000
    0.024000    -0.016022097    -0.641233379    -0.017294442    -0.631237197    -7.000000000
    0.026000    -0.017294442    -0.631237197    -0.018546952    -0.621396813    -7.000000000
    0.028000    -0.018546952    -0.621396813    -0.019779936    -0.611709800    -7.000000000
    0.030000    -0.019779936    -0.611709800    -0.020993699    -0.602173768    -7.000000000
    0.032000    -0.020993699    -0.602173768    -0.022188541    -0.592786365    -7.000000000
    0.034000    -0.022188541    -0.592786365    -0.023364756    -0.583545276    -7.000000000
    0.036000    -0.023364756    -0.583545276    -0.024522635    -0.574448220    -7.000000000
    0.038000    -0.024522635    -0.574448220    -0.025662463    -0.565492954    -7.000000000
    0.040000    -0.025662463    -0.565492954    -0.026784522    -0.556677268    -7.000000000
    0.042000    -0.026784522    -0.556677268    -0.027889089    -0.547998988    -7.000000000
    0.044000    -0.027889089    -0.547998988    -0.028976436    -0.539455973    -7.000000000
    0.046000    -0.028976436    -0.539455973    -0.030046832    -0.531046116    -7.000000000
    0.048000    -0.030046832    -0.531046116    -0.031100541    -0.522767340    -7.000000000
    0.050000    -0.031100541    -0.522767340    -0.032137823    -0.514617605    -7.000000000
    0.052000    -0.032137823    -0.514617605    -0.033158934    -0.506594899    -7.000000000
    0.054000    -0.033158934    -0.506594899    -0.034164127    -0.498697243    -7.000000000
    0.056000    -0.034164127    -0.498697243    -0.035153649    -0.490922689    -7.000000000
    0.058000    -0.035153649    -0.490922689    -0.036127744    -0.483269318    -7.000000000
    0.060000    -0.036127744    -0.483269318    -0.037086653    -0.475735243    -7.000000000
    0.062000    -0.037086653    -0.475735243    -0.038030614    -0.468318603    -7.000000000
    0.064000    -0.038030614    -0.468318603    -0.038959858    -0.461017570    -7.000000000
    0.066000    -0.038959858    -0.461017570    -0.039874615    -0.453830341    -7.000000000
    0.068000    -0.039874615    -0.453830341    -0.040775111    -0.446755144    -7.000000000
    0.070000    -0.040775111    -0.446755144    -0.041661569    -0.439790232    -7.000000000
    0.072000    -0.041661569    -0.439790232    -0.042534206    -0.432933888    -7.000000000
    0.074000    -0.042534206    -0.432933888    -0.043393239    -0.426184418    -7.000000000
    0.076000    -0.043393239    -0.426184418    -0.044238880    -0.419540159    -7.000000000
    0.078000    -0.044238880    -0.419540159    -0.045071337    -0.412999469    -7.000000000
    0.080000    -0.045071337    -0.412999469    -0.045890816    -0.406560736    -7.000000000
    0.082000    -0.045890816    -0.406560736    -0.046697519    -0.400222370    -7.000000000
    0.084000    -0.046697519    -0.400222370    -0.047491646    -0.393982807    -7.000000000
    0.086000    -0.047491646    -0.393982807    -0.048273392    -0.387840508    -7.000000000
    0.088000    -0.048273392    -0.387840508    -0.049042950    -0.381793956    -7.000000000
    0.090000    -0.049042950    -0.381793956    -0.049800510    -0.375841660    -7.000000000
    0.092000    -0.049800510    -0.375841660    -0.050546260    -0.369982151    -7.000000000
    0.094000    -0.050546260    -0.369982151    -0.051280384    -0.364213982    -7.000000000
    0.096000    -0.051280384    -0.364213982    -0.052003062    -0.358535730    -7.000000000
    0.098000    -0.052003062    -0.358535730    -0.052714473    -0.352945994    -7.000000000
    0.100000    -0.052714473    -0.352945994    -0.053414793    -0.347443394    -7.000000000
    0.102000    -0.053414793    -0.347443394    -0.054104194    -0.342026572    -7.000000000
    0.104000    -0.054104194    -0.342026572    -0.054782848    -0.336694192    -7.000000000
    0.106000    -0.054782848    -0.336694192    -0.055450921    -0.331444937    -7.000000000
    0.108000    -0.055450921    -0.331444937    -0.056108578    -0.326277511    -7.000000000
    0.110000    -0.056108578    -0.326277511    -0.056755982    -0.321190640    -7.000000000
    0.112000    -0.056755982    -0.321190640    -0.057393292    -0.316183068    -7.000000000
    0.114000    -0.057393292    -0.316183068    -0.058020667    -0.311253560    -7.000000000
    0.116000    -0.058020667    -0.311253560    -0.058638260    -0.306400897    -7.000000000
    0.118000    -0.058638260    -0.306400897    -0.059246225    -0.301623883    -7.000000000
    0.120000    -0.059246225    -0.301623883    -0.059844710    -0.296921339    -7.000000000
    0.122000    -0.059844710    -0.296921339    -0.060433866    -0.292292103    -7.000000000
    0.124000    -0.060433866    -0.292292103    -0.061013835    -0.287735034    -7.000000000
    0.126000    -0.061013835    -0.287735034    -0.061584763    -0.283249007    -7.000000000
    0.128000    -0.061584763    -0.283249007    -0.062146789    -0.278832913    -7.000000000
    0.130000    -0.062146789    -0.278832913    -0.062700053    -0.274485664    -7.000000000
    0.132000    -0.062700053    -0.274485664    -0.063244690    -0.270206186    -7.000000000
    0.134000    -0.063244690    -0.270206186    -0.063780837    -0.265993422    -7.000000000
    0.136000    -0.063780837    -0.265993422    -0.064308624    -0.261846334    -7.000000000
    0.138000    -0.064308624    -0.261846334    -0.064828183    -0.257763897    -7.000000000
    0.140000    -0.064828183    -0.257763897    -0.065339641    -0.253745104    -7.000000000
    0.142000    -0.065339641    -0.253745104    -0.065843125    -0.249788962    -7.000000000
    0.144000    -0.065843125    -0.249788962    -0.066338760    -0.245894495    -7.000000000
    0.146000    -0.066338760    -0.245894495    -0.066826667    -0.242060742    -7.000000000
    0.148000    -0.066826667    -0.242060742    -0.067306966    -0.238286756    -7.000000000
    0.150000    -0.067306966    -0.238286756    -0.067779778    -0.234571606    -7.000000000
    0.152000    -0.067779778    -0.234571606    -0.068245218    -0.230914375    -7.000000000
    0.154000    -0.068245218    -0.230914375    -0.068703401    -0.227314159    -7.000000000
    0.156000    -0.068703401    -0.227314159    -0.069154440    -0.223770071    -7.000000000
    0.158000    -0.069154440    -0.223770071    -0.069598448    -0.220281235    -7.000000000
    0.160000    -0.069598448    -0.220281235    -0.070035532    -0.216846789    -7.000000000
    0.162000    -0.070035532    -0.216846789    -0.070465802    -0.213465887    -7.000000000
    0.164000    -0.070465802    -0.213465887    -0.070889364    -0.210137694    -7.000000000
    0.166000    -0.070889364    -0.210137694    -0.071306322    -0.206861387    -7.000000000
    0.168000    -0.071306322    -0.206861387    -0.071716779    -0.203636158    -7.000000000
    0.170000    -0.071716779    -0.203636158    -0.072120836    -0.200461212    -7.000000000
    0.172000    -0.072120836    -0.200461212    -0.072518593    -0.197335763    -7.000000000
    0.174000    -0.072518593    -0.197335763    -0.072910149    -0.194259041    -7.000000000
    0.176000    -0.072910149    -0.194259041    -0.073295600    -0.191230286    -7.000000000
    0.178000    -0.073295600    -0.191230286    -0.073675042    -0.188248750    -7.000000000
    0.180000    -0.073675042    -0.188248750    -0.074048567    -0.185313697    -7.000000000
    0.182000    -0.074048567    -0.185313697    -0.074416269    -0.182424403    -7.000000000
    0.184000    -0.074416269    -0.182424403    -0.074778238    -0.179580154    -7.000000000
    0.186000    -0.074778238    -0.179580154    -0.075134563    -0.176780248    -7.000000000
    0.188000    -0.075134563    -0.176780248    -0.075485332    -0.174023995    -7.000000000
    0.190000    -0.075485332    -0.174023995    -0.075830633    -0.171310712    -7.000000000
    0.192000    -0.075830633    -0.171310712    -0.076170549    -0.168639731    -7.000000000
    0.194000    -0.076170549    -0.168639731    -0.076505166    -0.166010392    -7.000000000
    0.196000    -0.076505166    -0.166010392    -0.076834566    -0.163422046    -7.000000000
    0.198000    -0.076834566    -0.163422046    -0.077158830    -0.160874053    -7.000000000
    0.200000    -0.077158830    -0.160874053    -0.077478038    -0.158365786    -7.000000000
    0.202000    -0.077478038    -0.158365786    -0.077792269    -0.155896624    -7.000000000
    0.204000    -0.077792269    -0.155896624    -0.078101601    -0.153465958    -7.000000000
    0.206000    -0.078101601    -0.153465958    -0.078406110    -0.151073188    -7.000000000
    0.208000    -0.078406110    -0.151073188    -0.078705871    -0.148717723    -7.000000000
    0.210000    -0.078705871    -0.148717723    -0.079000959    -0.146398981    -7.000000000
    0.212000    -0.079000959    -0.146398981    -0.079291445    -0.144116390    -7.000000000
    0.214000    -0.079291445    -0.144116390    -0.079577403    -0.141869387    -7.000000000
    0.216000    -0.079577403    -0.141869387    -0.079858902    -0.139657417    -7.000000000
    0.218000    -0.079858902    -0.139657417    -0.080136012    -0.137479933    -7.000000000
    0.220000    -0.080136012    -0.137479933    -0.080408801    -0.135336398    -7.000000000
    0.222000    -0.080408801    -0.135336398    -0.080677337    -0.133226282    -7.000000000
    0.224000    -0.080677337    -0.133226282    -0.080941686    -0.131149065    -7.000000000
    0.226000    -0.080941686    -0.131149065    -0.081201914    -0.129104234    -7.000000000
    0.228000    -0.081201914    -0.129104234    -0.081458084    -0.127091284    -7.000000000
    0.230000    -0.081458084    -0.127091284    -0.081710260    -0.125109718    -7.000000000
    0.232000    -0.081710260    -0.125109718    -0.081958504    -0.123159046    -7.000000000
    0.234000    -0.081958504    -0.123159046    -0.082202878    -0.121238788    -7.000000000
    0.236000    -0.082202878    -0.121238788    -0.082443441    -0.119348468    -7.000000000
    0.238000    -0.082443441    -0.119348468    -0.082680254    -0.117487620    -7.000000000
    0.240000    -0.082680254    -0.117487620    -0.082913374    -0.115655785    -7.000000000
    0.242000    -0.082913374    -0.115655785    -0.083142859    -0.113852511    -7.000000000
    0.244000    -0.083142859    -0.113852511    -0.083368767    -0.112077351    -7.000000000
    0.246000    -0.083368767    -0.112077351    -0.083591152    -0.110329868    -7.000000000
    0.248000    -0.083591152    -0.110329868    -0.083810070    -0.108609631    -7.000000000
    0.250000    -0.083810070    -0.108609631    -0.084025574    -0.106916214    -7.000000000
    0.252000    -0.084025574    -0.106916214    -0.084237719    -0.105249200    -7.000000000
    0.254000    -0.084237719    -0.105249200    -0.084446555    -0.103608176    -7.000000000
    0.256000    -0.084446555    -0.103608176    -0.084652136    -0.101992738    -7.000000000
    0.258000    -0.084652136    -0.101992738    -0.084854511    -0.100402486    -7.000000000
    0.260000    -0.084854511    -0.100402486    -0.085053731    -0.098837029    -7.000000000
    0.262000    -0.085053731    -0.098837029    -0.085249844    -0.097295979    -7.000000000
    0.264000    -0.085249844    -0.097295979    -0.085442900    -0.095778956    -7.000000000
    0.266000    -0.085442900    -0.095778956    -0.085632946    -0.094285586    -7.000000000
    0.268000    -0.085632946    -0.094285586    -0.085820028    -0.092815499    -7.000000000
    0.270000    -0.085820028    -0.092815499    -0.086004194    -0.091368333    -7.000000000
    0.272000    -0.086004194    -0.091368333    -0.086185488    -0.089943730    -7.000000000
    0.274000    -0.086185488    -0.089943730    -0.086363955    -0.088541339    -7.000000000
    0.276000    -0.086363955    -0.088541339    -0.086539640    -0.087160813    -7.000000000
    0.278000    -0.086539640    -0.087160813    -0.086712586    -0.085801811    -7.000000000
    0.280000    -0.086712586    -0.085801811    -0.086882834    -0.084463998    -7.000000000
    0.282000    -0.086882834    -0.084463998    -0.087050429    -0.083147044    -7.000000000
    0.284000    -0.087050429    -0.083147044    -0.087215410    -0.081850622    -7.000000000
    0.286000    -0.087215410    -0.081850622    -0.087377819    -0.080574414    -7.000000000
    0.288000    -0.087377819    -0.080574414    -0.087537696    -0.079318104    -7.000000000
    0.290000    -0.087537696    -0.079318104    -0.087695080    -0.078081382    -7.000000000
    0.292000    -0.087695080    -0.078081382    -0.087850010    -0.076863942    -7.000000000
    0.294000    -0.087850010    -0.076863942    -0.088002524    -0.075665483    -7.000000000
    0.296000    -0.088002524    -0.075665483    -0.088152660    -0.074485711    -7.000000000
    0.298000    -0.088152660    -0.074485711    -0.088300456    -0.073324333    -7.000000000
    0.300000    -0.088300456    -0.073324333    -0.088445947    -0.072181063    -7.000000000
    0.302000    -0.088445947    -0.072181063    -0.088589169    -0.071055618    -7.000000000
    0.304000    -0.088589169    -0.071055618    -0.088730158    -0.069947721    -7.000000000
    0.306000    -0.088730158    -0.069947721    -0.088868950    -0.068857097    -7.000000000
    0.308000    -0.088868950    -0.068857097    -0.089005577    -0.067783478    -7.000000000
    0.310000    -0.089005577    -0.067783478    -0.089140073    -0.066726599    -7.000000000
    0.312000    -0.089140073    -0.066726599    -0.089272473    -0.065686198    -7.000000000
    0.314000    -0.089272473    -0.065686198    -0.089402808    -0.064662018    -7.000000000
    0.316000    -0.089402808    -0.064662018    -0.089531111    -0.063653808    -7.000000000
    0.318000    -0.089531111    -0.063653808    -0.089657414    -0.062661317    -7.000000000
    0.320000    -0.089657414    -0.062661317    -0.089781747    -0.061684300    -7.000000000
    0.322000    -0.089781747    -0.061684300    -0.089904142    -0.060722517    -7.000000000
    0.324000    -0.089904142    -0.060722517    -0.090024628    -0.059775730    -7.000000000
    0.326000    -0.090024628    -0.059775730    -0.090143236    -0.058843704    -7.000000000
    0.328000    -0.090143236    -0.058843704    -0.090259994    -0.057926211    -7.000000000
    0.330000    -0.090259994    -0.057926211    -0.090374932    -0.057023023    -7.000000000
    0.332000    -0.090374932    -0.057023023    -0.090488078    -0.056133917    -7.000000000
    0.334000    -0.090488078    -0.056133917    -0.090599459    -0.055258674    -7.000000000
    0.336000    -0.090599459    -0.055258674    -0.090709104    -0.054397078    -7.000000000
    0.338000    -0.090709104    -0.054397078    -0.090817040    -0.053548915    -7.000000000
    0.340000    -0.090817040    -0.053548915    -0.090923292    -0.052713977    -7.000000000
    0.342000    -0.090923292    -0.052713977    -0.091027888    -0.051892057    -7.000000000
    0.344000    -0.091027888    -0.051892057    -0.091130852    -0.051082952    -7.000000000
    0.346000    -0.091130852    -0.051082952    -0.091232212    -0.050286462    -7.000000000
    0.348000    -0.091232212    -0.050286462    -0.091331991    -0.049502391    -7.000000000
    0.350000    -0.091331991    -0.049502391    -0.091430214    -0.048730546    -7.000000000
    0.352000    -0.091430214    -0.048730546    -0.091526906    -0.047970734    -7.000000000
    0.354000    -0.091526906    -0.047970734    -0.091622090    -0.047222770    -7.000000000
    0.356000    -0.091622090    -0.047222770    -0.091715790    -0.046486468    -7.000000000
    0.358000    -0.091715790    -0.046486468    -0.091808029    -0.045761646    -7.000000000
    0.360000    -0.091808029    -0.045761646    -0.091898829    -0.045048125    -7.000000000
    0.362000    -0.091898829    -0.045048125    -0.091988214    -0.044345730    -7.000000000
    0.364000    -0.091988214    -0.044345730    -0.092076206    -0.043654286    -7.000000000
    0.366000    -0.092076206    -0.043654286    -0.092162825    -0.042973623    -7.000000000
    0.368000    -0.092162825    -0.042973623    -0.092248094    -0.042303573    -7.000000000
    0.370000    -0.092248094    -0.042303573    -0.092332033    -0.041643970    -7.000000000
    0.372000    -0.092332033    -0.041643970    -0.092414663    -0.040994652    -7.000000000
    0.374000    -0.092414663    -0.040994652    -0.092496005    -0.040355458    -7.000000000
    0.376000    -0.092496005    -0.040355458    -0.092576079    -0.039726230    -7.000000000
    0.378000    -0.092576079    -0.039726230    -0.092654904    -0.039106813    -7.000000000
    0.380000    -0.092654904    -0.039106813    -0.092732500    -0.038497054    -7.000000000
    0.382000    -0.092732500    -0.038497054    -0.092808887    -0.037896802    -7.000000000
    0.384000    -0.092808887    -0.037896802    -0.092884082    -0.037305910    -7.000000000
    0.386000    -0.092884082    -0.037305910    -0.092958105    -0.036724230    -7.000000000
    0.388000    -0.092958105    -0.036724230    -0.093030973    -0.036151620    -7.000000000
    0.390000    -0.093030973    -0.036151620    -0.093102706    -0.035587938    -7.000000000
    0.392000    -0.093102706    -0.035587938    -0.093173320    -0.035033045    -7.000000000
    0.394000    -0.093173320    -0.035033045    -0.093242833    -0.034486804    -7.000000000
    0.396000    -0.093242833    -0.034486804    -0.093311262    -0.033949080    -7.000000000
    0.398000    -0.093311262    -0.033949080    -0.093378624    -0.033419740    -7.000000000
    0.400000    -0.093378624    -0.033419740    -0.093444936    -0.032898654    -7.000000000
    0.402000    -0.093444936    -0.032898654    -0.093510214    -0.032385692    -7.000000000
    0.404000    -0.093510214    -0.032385692    -0.093574474    -0.031880729    -7.000000000
    0.406000    -0.093574474    -0.031880729    -0.093637732    -0.031383638    -7.000000000
    0.408000    -0.093637732    -0.031383638    -0.093700004    -0.030894299    -7.000000000
    0.410000    -0.093700004    -0.030894299    -0.093761304    -0.030412589    -7.000000000
    0.412000    -0.093761304    -0.030412589    -0.093821649    -0.029938390    -7.000000000
    0.414000    -0.093821649    -0.029938390    -0.093881054    -0.029471585    -7.000000000
    0.416000    -0.093881054    -0.029471585    -0.093939531    -0.029012058    -7.000000000
    0.418000    -0.093939531    -0.029012058    -0.093997097    -0.028559697    -7.000000000
    0.420000    -0.093997097    -0.028559697    -0.094053766    -0.028114388    -7.000000000
    0.422000    -0.094053766    -0.028114388    -0.094109551    -0.027676023    -7.000000000
    0.424000    -0.094109551    -0.027676023    -0.094164466    -0.027244493    -7.000000000
