Voltage Amplitude:  7  Volts
Voltage Frequency:  2  Hz
Phase Difference:  90.0  Degrees

        time            y(t)            v(t)          y(t+1)          v(t+1)         Voltage
    0.000000     0.000000000     0.000000000     0.000039336     0.195270376     7.000000000
    0.000500     0.000039336     0.195270376     0.000196888     0.419235752     7.000000000
    0.001000     0.000196888     0.419235752     0.000445462     0.561344592     7.000000000
    0.001500     0.000445462     0.561344592     0.000748918     0.643989855     7.000000000
    0.002000     0.000748918     0.643989855     0.001083845     0.690752305     7.000000000
    0.002500     0.001083845     0.690752305     0.001436396     0.716579443     7.000000000
    0.003000     0.001436396     0.716579443     0.001798522     0.730278893     7.000000000
    0.003500     0.001798522     0.730278893     0.002165568     0.736965345     7.000000000
    0.004000     0.002165568     0.736965345     0.002534842     0.739599798     7.000000000
    0.004500     0.002534842     0.739599798     0.002904789     0.739895276     7.000000000
    0.005000     0.002904789     0.739895276     0.003274513     0.738842657     7.000000000
    0.005500     0.003274513     0.738842657     0.003643497     0.737015068     7.000000000
    0.006000     0.003643497     0.737015068     0.004011445     0.734744002     7.000000000
    0.006500     0.004011445     0.734744002     0.004378187     0.732221178     7.000000000
    0.007000     0.004378187     0.732221178     0.004743630     0.729557472     7.000000000
    0.007500     0.004743630     0.729557472     0.005107719     0.726816999     7.000000000
    0.008000     0.005107719     0.726816999     0.005470426     0.724036825     7.000000000
    0.008500     0.005470426     0.724036825     0.005831739     0.721238370     7.000000000
    0.009000     0.005831739     0.721238370     0.006191650     0.718434008     7.000000000
    0.009500     0.006191650     0.718434008     0.006550159     0.715630875     7.000000000
    0.010000     0.006550159     0.715630875     0.006907268     0.712833083     7.000000000
    0.010500     0.006907268     0.712833083     0.007262979     0.710042991     7.000000000
    0.011000     0.007262979     0.710042991     0.007617298     0.707261945     7.000000000
    0.011500     0.007617298     0.707261945     0.007970229     0.704490706     7.000000000
    0.012000     0.007970229     0.704490706     0.008321777     0.701729698     7.000000000
    0.012500     0.008321777     0.701729698     0.008671947     0.698979145     7.000000000
    0.013000     0.008671947     0.698979145     0.009020744     0.696239162     7.000000000
    0.013500     0.009020744     0.696239162     0.009368174     0.693509795     7.000000000
    0.014000     0.009368174     0.693509795     0.009714242     0.690791056     7.000000000
    0.014500     0.009714242     0.690791056     0.010058953     0.688082932     7.000000000
    0.015000     0.010058953     0.688082932     0.010402313     0.685385399     7.000000000
    0.015500     0.010402313     0.685385399     0.010744327     0.682698425     7.000000000
    0.016000     0.010744327     0.682698425     0.011085000     0.680021974     7.000000000
    0.016500     0.011085000     0.680021974     0.011424337     0.677356010     7.000000000
    0.017000     0.011424337     0.677356010     0.011762344     0.674700492     7.000000000
    0.017500     0.011762344     0.674700492     0.012099026     0.672055382     7.000000000
    0.018000     0.012099026     0.672055382     0.012434388     0.669420637     7.000000000
    0.018500     0.012434388     0.669420637     0.012768435     0.666796220     7.000000000
    0.019000     0.012768435     0.666796220     0.013101173     0.664182089     7.000000000
    0.019500     0.013101173     0.664182089     0.013432606     0.661578203     7.000000000
    0.020000     0.013432606     0.661578203     0.013762740     0.658984524     7.000000000
    0.020500     0.013762740     0.658984524     0.014091579     0.656401011     7.000000000
    0.021000     0.014091579     0.656401011     0.014419130     0.653827624     7.000000000
    0.021500     0.014419130     0.653827624     0.014745396     0.651264324     7.000000000
    0.022000     0.014745396     0.651264324     0.015070383     0.648711071     7.000000000
    0.022500     0.015070383     0.648711071     0.015394096     0.646167826     7.000000000
    0.023000     0.015394096     0.646167826     0.015716540     0.643634549     7.000000000
    0.023500     0.015716540     0.643634549     0.016037719     0.641111201     7.000000000
    0.024000     0.016037719     0.641111201     0.016357640     0.638597745     7.000000000
    0.024500     0.016357640     0.638597745     0.016676306     0.636094140     7.000000000
    0.025000     0.016676306     0.636094140     0.016993723     0.633600348     7.000000000
    0.025500     0.016993723     0.633600348     0.017309896     0.631116331     7.000000000
    0.026000     0.017309896     0.631116331     0.017624829     0.628642051     7.000000000
    0.026500     0.017624829     0.628642051     0.017938527     0.626177469     7.000000000
    0.027000     0.017938527     0.626177469     0.018250996     0.623722547     7.000000000
    0.027500     0.018250996     0.623722547     0.018562239     0.621277247     7.000000000
    0.028000     0.018562239     0.621277247     0.018872262     0.618841533     7.000000000
    0.028500     0.018872262     0.618841533     0.019181070     0.616415366     7.000000000
    0.029000     0.019181070     0.616415366     0.019488667     0.613998708     7.000000000
    0.029500     0.019488667     0.613998708     0.019795058     0.611591523     7.000000000
    0.030000     0.019795058     0.611591523     0.020100248     0.609193774     7.000000000
    0.030500     0.020100248     0.609193774     0.020404242     0.606805423     7.000000000
    0.031000     0.020404242     0.606805423     0.020707043     0.604426434     7.000000000
    0.031500     0.020707043     0.604426434     0.021008658     0.602056769     7.000000000
    0.032000     0.021008658     0.602056769     0.021309090     0.599696394     7.000000000
    0.032500     0.021309090     0.599696394     0.021608344     0.597345270     7.000000000
    0.033000     0.021608344     0.597345270     0.021906425     0.595003362     7.000000000
    0.033500     0.021906425     0.595003362     0.022203337     0.592670633     7.000000000
    0.034000     0.022203337     0.592670633     0.022499085     0.590347049     7.000000000
    0.034500     0.022499085     0.590347049     0.022793674     0.588032572     7.000000000
    0.035000     0.022793674     0.588032572     0.023087108     0.585727167     7.000000000
    0.035500     0.023087108     0.585727167     0.023379391     0.583430800     7.000000000
    0.036000     0.023379391     0.583430800     0.023670529     0.581143433     7.000000000
    0.036500     0.023670529     0.581143433     0.023960525     0.578865032     7.000000000
    0.037000     0.023960525     0.578865032     0.024249384     0.576595562     7.000000000
    0.037500     0.024249384     0.576595562     0.024537110     0.574334989     7.000000000
    0.038000     0.024537110     0.574334989     0.024823709     0.572083276     7.000000000
    0.038500     0.024823709     0.572083276     0.025109184     0.569840389     7.000000000
    0.039000     0.025109184     0.569840389     0.025393540     0.567606294     7.000000000
    0.039500     0.025393540     0.567606294     0.025676781     0.565380956     7.000000000
    0.040000     0.025676781     0.565380956     0.025958911     0.563164341     7.000000000
    0.040500     0.025958911     0.563164341     0.026239935     0.560956415     7.000000000
    0.041000     0.026239935     0.560956415     0.026519858     0.558757144     7.000000000
    0.041500     0.026519858     0.558757144     0.026798683     0.556566493     7.000000000
    0.042000     0.026798683     0.556566493     0.027076415     0.554384430     7.000000000
    0.042500     0.027076415     0.554384430     0.027353058     0.552210919     7.000000000
    0.043000     0.027353058     0.552210919     0.027628616     0.550045929     7.000000000
    0.043500     0.027628616     0.550045929     0.027903094     0.547889425     7.000000000
    0.044000     0.027903094     0.547889425     0.028176496     0.545741375     7.000000000
    0.044500     0.028176496     0.545741375     0.028448827     0.543601744     7.000000000
    0.045000     0.028448827     0.543601744     0.028720089     0.541470500     7.000000000
    0.045500     0.028720089     0.541470500     0.028990288     0.539347611     7.000000000
    0.046000     0.028990288     0.539347611     0.029259427     0.537233043     7.000000000
    0.046500     0.029259427     0.537233043     0.029527512     0.535126765     7.000000000
    0.047000     0.029527512     0.535126765     0.029794545     0.533028742     7.000000000
    0.047500     0.029794545     0.533028742     0.030060531     0.530938944     7.000000000
    0.048000     0.030060531     0.530938944     0.030325475     0.528857337     7.000000000
    0.048500     0.030325475     0.528857337     0.030589380     0.526783890     7.000000000
    0.049000     0.030589380     0.526783890     0.030852250     0.524718571     7.000000000
    0.049500     0.030852250     0.524718571     0.031114089     0.522661348     7.000000000
    0.050000     0.031114089     0.522661348     0.031374902     0.520612189     7.000000000
    0.050500     0.031374902     0.520612189     0.031634693     0.518571062     7.000000000
    0.051000     0.031634693     0.518571062     0.031893464     0.516537937     7.000000000
    0.051500     0.031893464     0.516537937     0.032151222     0.514512781     7.000000000
    0.052000     0.032151222     0.514512781     0.032407968     0.512495564     7.000000000
    0.052500     0.032407968     0.512495564     0.032663708     0.510486254     7.000000000
    0.053000     0.032663708     0.510486254     0.032918446     0.508484821     7.000000000
    0.053500     0.032918446     0.508484821     0.033172185     0.506491233     7.000000000
    0.054000     0.033172185     0.506491233     0.033424928     0.504505460     7.000000000
    0.054500     0.033424928     0.504505460     0.033676681     0.502527472     7.000000000
    0.055000     0.033676681     0.502527472     0.033927447     0.500557237     7.000000000
    0.055500     0.033927447     0.500557237     0.034177230     0.498594725     7.000000000
    0.056000     0.034177230     0.498594725     0.034426034     0.496639906     7.000000000
    0.056500     0.034426034     0.496639906     0.034673862     0.494692751     7.000000000
    0.057000     0.034673862     0.494692751     0.034920718     0.492753228     7.000000000
    0.057500     0.034920718     0.492753228     0.035166606     0.490821308     7.000000000
    0.058000     0.035166606     0.490821308     0.035411531     0.488896961     7.000000000
    0.058500     0.035411531     0.488896961     0.035655495     0.486980158     7.000000000
    0.059000     0.035655495     0.486980158     0.035898503     0.485070868     7.000000000
    0.059500     0.035898503     0.485070868     0.036140558     0.483169063     7.000000000
    0.060000     0.036140558     0.483169063     0.036381663     0.481274713     7.000000000
    0.060500     0.036381663     0.481274713     0.036621824     0.479387789     7.000000000
    0.061000     0.036621824     0.479387789     0.036861043     0.477508262     7.000000000
    0.061500     0.036861043     0.477508262     0.037099324     0.475636103     7.000000000
    0.062000     0.037099324     0.475636103     0.037336671     0.473771283     7.000000000
    0.062500     0.037336671     0.473771283     0.037573087     0.471913773     7.000000000
    0.063000     0.037573087     0.471913773     0.037808577     0.470063545     7.000000000
    0.063500     0.037808577     0.470063545     0.038043143     0.468220569     7.000000000
    0.064000     0.038043143     0.468220569     0.038276789     0.466384818     7.000000000
    0.064500     0.038276789     0.466384818     0.038509520     0.464556264     7.000000000
    0.065000     0.038509520     0.464556264     0.038741338     0.462734877     7.000000000
    0.065500     0.038741338     0.462734877     0.038972247     0.460920631     7.000000000
    0.066000     0.038972247     0.460920631     0.039202250     0.459113496     7.000000000
    0.066500     0.039202250     0.459113496     0.039431352     0.457313446     7.000000000
    0.067000     0.039431352     0.457313446     0.039659556     0.455520452     7.000000000
    0.067500     0.039659556     0.455520452     0.039886865     0.453734487     7.000000000
    0.068000     0.039886865     0.453734487     0.040113283     0.451955523     7.000000000
    0.068500     0.040113283     0.451955523     0.040338813     0.450183533     7.000000000
    0.069000     0.040338813     0.450183533     0.040563459     0.448418489     7.000000000
    0.069500     0.040563459     0.448418489     0.040787224     0.446660364     7.000000000
    0.070000     0.040787224     0.446660364     0.041010111     0.444909132     7.000000000
    0.070500     0.041010111     0.444909132     0.041232125     0.443164764     7.000000000
    0.071000     0.041232125     0.443164764     0.041453269     0.441427235     7.000000000
    0.071500     0.041453269     0.441427235     0.041673545     0.439696517     7.000000000
    0.072000     0.041673545     0.439696517     0.041892958     0.437972584     7.000000000
    0.072500     0.041892958     0.437972584     0.042111510     0.436255409     7.000000000
    0.073000     0.042111510     0.436255409     0.042329206     0.434544965     7.000000000
    0.073500     0.042329206     0.434544965     0.042546048     0.432841227     7.000000000
    0.074000     0.042546048     0.432841227     0.042762039     0.431144167     7.000000000
    0.074500     0.042762039     0.431144167     0.042977184     0.429453760     7.000000000
    0.075000     0.042977184     0.429453760     0.043191486     0.427769980     7.000000000
    0.075500     0.043191486     0.427769980     0.043404947     0.426092801     7.000000000
    0.076000     0.043404947     0.426092801     0.043617571     0.424422197     7.000000000
    0.076500     0.043617571     0.424422197     0.043829362     0.422758142     7.000000000
    0.077000     0.043829362     0.422758142     0.044040322     0.421100610     7.000000000
    0.077500     0.044040322     0.421100610     0.044250455     0.419449576     7.000000000
    0.078000     0.044250455     0.419449576     0.044459765     0.417805014     7.000000000
    0.078500     0.044459765     0.417805014     0.044668253     0.416166899     7.000000000
    0.079000     0.044668253     0.416166899     0.044875925     0.414535206     7.000000000
    0.079500     0.044875925     0.414535206     0.045082781     0.412909910     7.000000000
    0.080000     0.045082781     0.412909910     0.045288827     0.411290985     7.000000000
    0.080500     0.045288827     0.411290985     0.045494065     0.409678407     7.000000000
    0.081000     0.045494065     0.409678407     0.045698499     0.408072151     7.000000000
    0.081500     0.045698499     0.408072151     0.045902131     0.406472191     7.000000000
    0.082000     0.045902131     0.406472191     0.046104964     0.404878504     7.000000000
    0.082500     0.046104964     0.404878504     0.046307002     0.403291064     7.000000000
    0.083000     0.046307002     0.403291064     0.046508248     0.401709847     7.000000000
    0.083500     0.046508248     0.401709847     0.046708705     0.400134829     7.000000000
    0.084000     0.046708705     0.400134829     0.046908376     0.398565986     7.000000000
    0.084500     0.046908376     0.398565986     0.047107264     0.397003293     7.000000000
    0.085000     0.047107264     0.397003293     0.047305373     0.395446726     7.000000000
    0.085500     0.047305373     0.395446726     0.047502704     0.393896261     7.000000000
    0.086000     0.047502704     0.393896261     0.047699262     0.392351874     7.000000000
    0.086500     0.047699262     0.392351874     0.047895050     0.390813542     7.000000000
    0.087000     0.047895050     0.390813542     0.048090069     0.389281241     7.000000000
    0.087500     0.048090069     0.389281241     0.048284324     0.387754947     7.000000000
    0.088000     0.048284324     0.387754947     0.048477817     0.386234636     7.000000000
    0.088500     0.048477817     0.386234636     0.048670552     0.384720285     7.000000000
    0.089000     0.048670552     0.384720285     0.048862531     0.383211871     7.000000000
    0.089500     0.048862531     0.383211871     0.049053757     0.381709370     7.000000000
    0.090000     0.049053757     0.381709370     0.049244234     0.380212760     7.000000000
    0.090500     0.049244234     0.380212760     0.049433964     0.378722016     7.000000000
    0.091000     0.049433964     0.378722016     0.049622950     0.377237117     7.000000000
    0.091500     0.049622950     0.377237117     0.049811194     0.375758039     7.000000000
    0.092000     0.049811194     0.375758039     0.049998701     0.374284760     7.000000000
    0.092500     0.049998701     0.374284760     0.050185473     0.372817256     7.000000000
    0.093000     0.050185473     0.372817256     0.050371512     0.371355506     7.000000000
    0.093500     0.050371512     0.371355506     0.050556822     0.369899486     7.000000000
    0.094000     0.050556822     0.369899486     0.050741405     0.368449174     7.000000000
    0.094500     0.050741405     0.368449174     0.050925265     0.367004548     7.000000000
    0.095000     0.050925265     0.367004548     0.051108404     0.365565585     7.000000000
    0.095500     0.051108404     0.365565585     0.051290824     0.364132263     7.000000000
    0.096000     0.051290824     0.364132263     0.051472530     0.362704561     7.000000000
    0.096500     0.051472530     0.362704561     0.051653523     0.361282456     7.000000000
    0.097000     0.051653523     0.361282456     0.051833806     0.359865925     7.000000000
    0.097500     0.051833806     0.359865925     0.052013382     0.358454949     7.000000000
    0.098000     0.052013382     0.358454949     0.052192255     0.357049503     7.000000000
    0.098500     0.052192255     0.357049503     0.052370426     0.355649568     7.000000000
    0.099000     0.052370426     0.355649568     0.052547898     0.354255121     7.000000000
    0.099500     0.052547898     0.354255121     0.052724675     0.352866140     7.000000000
    0.100000     0.052724675     0.352866140     0.052900758     0.351482605     7.000000000
    0.100500     0.052900758     0.351482605     0.053076151     0.350104494     7.000000000
    0.101000     0.053076151     0.350104494     0.053250857     0.348731786     7.000000000
    0.101500     0.053250857     0.348731786     0.053424877     0.347364459     7.000000000
    0.102000     0.053424877     0.347364459     0.053598215     0.346002492     7.000000000
    0.102500     0.053598215     0.346002492     0.053770874     0.344645865     7.000000000
    0.103000     0.053770874     0.344645865     0.053942855     0.343294557     7.000000000
    0.103500     0.053942855     0.343294557     0.054114163     0.341948546     7.000000000
    0.104000     0.054114163     0.341948546     0.054284798     0.340607812     7.000000000
    0.104500     0.054284798     0.340607812     0.054454765     0.339272335     7.000000000
    0.105000     0.054454765     0.339272335     0.054624065     0.337942093     7.000000000
    0.105500     0.054624065     0.337942093     0.054792701     0.336617066     7.000000000
    0.106000     0.054792701     0.336617066     0.054960676     0.335297234     7.000000000
