Voltage Amplitude:  5  Volts
Voltage Frequency:  1  Hz
Phase Difference:  270.0  Degrees

        time            y(t)            v(t)          y(t+1)          v(t+1)         Voltage
    0.000000     0.000000000     0.000000000    -0.000141244    -0.301087788    -5.000000000
    0.001000    -0.000141244    -0.301087788    -0.000538854    -0.463581366    -5.000000000
    0.002000    -0.000538854    -0.463581366    -0.001033714    -0.515485176    -5.000000000
    0.003000    -0.001033714    -0.515485176    -0.001558119    -0.529828127    -5.000000000
    0.004000    -0.001558119    -0.529828127    -0.002089479    -0.531766860    -5.000000000
    0.005000    -0.002089479    -0.531766860    -0.002620347    -0.529629117    -5.000000000
    0.006000    -0.002620347    -0.529629117    -0.003148285    -0.526166259    -5.000000000
    0.007000    -0.003148285    -0.526166259    -0.003672510    -0.522287090    -5.000000000
    0.008000    -0.003672510    -0.522287090    -0.004192783    -0.518291684    -5.000000000
    0.009000    -0.004192783    -0.518291684    -0.004709048    -0.514279009    -5.000000000
    0.010000    -0.004709048    -0.514279009    -0.005221306    -0.510281599    -5.000000000
    0.011000    -0.005221306    -0.510281599    -0.005729580    -0.506310037    -5.000000000
    0.012000    -0.005729580    -0.506310037    -0.006233897    -0.502367658    -5.000000000
    0.013000    -0.006233897    -0.502367658    -0.006734286    -0.498455403    -5.000000000
    0.014000    -0.006734286    -0.498455403    -0.007230779    -0.494573423    -5.000000000
    0.015000    -0.007230779    -0.494573423    -0.007723404    -0.490721610    -5.000000000
    0.016000    -0.007723404    -0.490721610    -0.008212193    -0.486899772    -5.000000000
    0.017000    -0.008212193    -0.486899772    -0.008697176    -0.483107689    -5.000000000
    0.018000    -0.008697176    -0.483107689    -0.009178381    -0.479345133    -5.000000000
    0.019000    -0.009178381    -0.479345133    -0.009655838    -0.475611877    -5.000000000
    0.020000    -0.009655838    -0.475611877    -0.010129577    -0.471907694    -5.000000000
    0.021000    -0.010129577    -0.471907694    -0.010599626    -0.468232356    -5.000000000
    0.022000    -0.010599626    -0.468232356    -0.011066015    -0.464585639    -5.000000000
    0.023000    -0.011066015    -0.464585639    -0.011528771    -0.460967320    -5.000000000
    0.024000    -0.011528771    -0.460967320    -0.011987923    -0.457377179    -5.000000000
    0.025000    -0.011987923    -0.457377179    -0.012443499    -0.453814996    -5.000000000
    0.026000    -0.012443499    -0.453814996    -0.012895527    -0.450280553    -5.000000000
    0.027000    -0.012895527    -0.450280553    -0.013344034    -0.446773635    -5.000000000
    0.028000    -0.013344034    -0.446773635    -0.013789048    -0.443294026    -5.000000000
    0.029000    -0.013789048    -0.443294026    -0.014230596    -0.439841515    -5.000000000
    0.030000    -0.014230596    -0.439841515    -0.014668706    -0.436415890    -5.000000000
    0.031000    -0.014668706    -0.436415890    -0.015103403    -0.433016942    -5.000000000
    0.032000    -0.015103403    -0.433016942    -0.015534714    -0.429644464    -5.000000000
    0.033000    -0.015534714    -0.429644464    -0.015962667    -0.426298249    -5.000000000
    0.034000    -0.015962667    -0.426298249    -0.016387286    -0.422978092    -5.000000000
    0.035000    -0.016387286    -0.422978092    -0.016808599    -0.419683792    -5.000000000
    0.036000    -0.016808599    -0.419683792    -0.017226630    -0.416415146    -5.000000000
    0.037000    -0.017226630    -0.416415146    -0.017641405    -0.413171955    -5.000000000
    0.038000    -0.017641405    -0.413171955    -0.018052950    -0.409954020    -5.000000000
    0.039000    -0.018052950    -0.409954020    -0.018461289    -0.406761146    -5.000000000
    0.040000    -0.018461289    -0.406761146    -0.018866448    -0.403593136    -5.000000000
    0.041000    -0.018866448    -0.403593136    -0.019268452    -0.400449798    -5.000000000
    0.042000    -0.019268452    -0.400449798    -0.019667325    -0.397330939    -5.000000000
    0.043000    -0.019667325    -0.397330939    -0.020063091    -0.394236368    -5.000000000
    0.044000    -0.020063091    -0.394236368    -0.020455775    -0.391165897    -5.000000000
    0.045000    -0.020455775    -0.391165897    -0.020845400    -0.388119337    -5.000000000
    0.046000    -0.020845400    -0.388119337    -0.021231991    -0.385096504    -5.000000000
    0.047000    -0.021231991    -0.385096504    -0.021615571    -0.382097211    -5.000000000
    0.048000    -0.021615571    -0.382097211    -0.021996163    -0.379121276    -5.000000000
    0.049000    -0.021996163    -0.379121276    -0.022373792    -0.376168516    -5.000000000
    0.050000    -0.022373792    -0.376168516    -0.022748479    -0.373238752    -5.000000000
    0.051000    -0.022748479    -0.373238752    -0.023120247    -0.370331804    -5.000000000
    0.052000    -0.023120247    -0.370331804    -0.023489121    -0.367447494    -5.000000000
    0.053000    -0.023489121    -0.367447494    -0.023855121    -0.364585647    -5.000000000
    0.054000    -0.023855121    -0.364585647    -0.024218271    -0.361746088    -5.000000000
    0.055000    -0.024218271    -0.361746088    -0.024578592    -0.358928642    -5.000000000
    0.056000    -0.024578592    -0.358928642    -0.024936108    -0.356133137    -5.000000000
    0.057000    -0.024936108    -0.356133137    -0.025290838    -0.353359404    -5.000000000
    0.058000    -0.025290838    -0.353359404    -0.025642806    -0.350607272    -5.000000000
    0.059000    -0.025642806    -0.350607272    -0.025992032    -0.347876573    -5.000000000
    0.060000    -0.025992032    -0.347876573    -0.026338539    -0.345167140    -5.000000000
    0.061000    -0.026338539    -0.345167140    -0.026682347    -0.342478808    -5.000000000
    0.062000    -0.026682347    -0.342478808    -0.027023477    -0.339811412    -5.000000000
    0.063000    -0.027023477    -0.339811412    -0.027361950    -0.337164790    -5.000000000
    0.064000    -0.027361950    -0.337164790    -0.027697787    -0.334538779    -5.000000000
    0.065000    -0.027697787    -0.334538779    -0.028031008    -0.331933219    -5.000000000
    0.066000    -0.028031008    -0.331933219    -0.028361634    -0.329347951    -5.000000000
    0.067000    -0.028361634    -0.329347951    -0.028689685    -0.326782817    -5.000000000
    0.068000    -0.028689685    -0.326782817    -0.029015181    -0.324237659    -5.000000000
    0.069000    -0.029015181    -0.324237659    -0.029338142    -0.321712324    -5.000000000
    0.070000    -0.029338142    -0.321712324    -0.029658587    -0.319206655    -5.000000000
    0.071000    -0.029658587    -0.319206655    -0.029976536    -0.316720500    -5.000000000
    0.072000    -0.029976536    -0.316720500    -0.030292010    -0.314253708    -5.000000000
    0.073000    -0.030292010    -0.314253708    -0.030605026    -0.311806126    -5.000000000
    0.074000    -0.030605026    -0.311806126    -0.030915604    -0.309377607    -5.000000000
    0.075000    -0.030915604    -0.309377607    -0.031223763    -0.306968000    -5.000000000
    0.076000    -0.031223763    -0.306968000    -0.031529522    -0.304577160    -5.000000000
    0.077000    -0.031529522    -0.304577160    -0.031832900    -0.302204939    -5.000000000
    0.078000    -0.031832900    -0.302204939    -0.032133915    -0.299851194    -5.000000000
    0.079000    -0.032133915    -0.299851194    -0.032432585    -0.297515779    -5.000000000
    0.080000    -0.032432585    -0.297515779    -0.032728929    -0.295198552    -5.000000000
    0.081000    -0.032728929    -0.295198552    -0.033022965    -0.292899372    -5.000000000
    0.082000    -0.033022965    -0.292899372    -0.033314711    -0.290618099    -5.000000000
    0.083000    -0.033314711    -0.290618099    -0.033604184    -0.288354592    -5.000000000
    0.084000    -0.033604184    -0.288354592    -0.033891403    -0.286108713    -5.000000000
    0.085000    -0.033891403    -0.286108713    -0.034176385    -0.283880325    -5.000000000
    0.086000    -0.034176385    -0.283880325    -0.034459147    -0.281669292    -5.000000000
    0.087000    -0.034459147    -0.281669292    -0.034739707    -0.279475479    -5.000000000
    0.088000    -0.034739707    -0.279475479    -0.035018082    -0.277298751    -5.000000000
    0.089000    -0.035018082    -0.277298751    -0.035294289    -0.275138976    -5.000000000
    0.090000    -0.035294289    -0.275138976    -0.035568344    -0.272996022    -5.000000000
    0.091000    -0.035568344    -0.272996022    -0.035840265    -0.270869757    -5.000000000
    0.092000    -0.035840265    -0.270869757    -0.036110068    -0.268760051    -5.000000000
    0.093000    -0.036110068    -0.268760051    -0.036377770    -0.266666777    -5.000000000
    0.094000    -0.036377770    -0.266666777    -0.036643386    -0.264589805    -5.000000000
    0.095000    -0.036643386    -0.264589805    -0.036906934    -0.262529008    -5.000000000
    0.096000    -0.036906934    -0.262529008    -0.037168429    -0.260484262    -5.000000000
    0.097000    -0.037168429    -0.260484262    -0.037427888    -0.258455440    -5.000000000
    0.098000    -0.037427888    -0.258455440    -0.037685325    -0.256442420    -5.000000000
    0.099000    -0.037685325    -0.256442420    -0.037940758    -0.254445076    -5.000000000
    0.100000    -0.037940758    -0.254445076    -0.038194201    -0.252463289    -5.000000000
    0.101000    -0.038194201    -0.252463289    -0.038445670    -0.250496936    -5.000000000
    0.102000    -0.038445670    -0.250496936    -0.038695180    -0.248545898    -5.000000000
    0.103000    -0.038695180    -0.248545898    -0.038942747    -0.246610054    -5.000000000
    0.104000    -0.038942747    -0.246610054    -0.039188386    -0.244689287    -5.000000000
    0.105000    -0.039188386    -0.244689287    -0.039432111    -0.242783480    -5.000000000
    0.106000    -0.039432111    -0.242783480    -0.039673939    -0.240892516    -5.000000000
    0.107000    -0.039673939    -0.240892516    -0.039913882    -0.239016278    -5.000000000
    0.108000    -0.039913882    -0.239016278    -0.040151957    -0.237154654    -5.000000000
    0.109000    -0.040151957    -0.237154654    -0.040388178    -0.235307528    -5.000000000
    0.110000    -0.040388178    -0.235307528    -0.040622559    -0.233474788    -5.000000000
    0.111000    -0.040622559    -0.233474788    -0.040855114    -0.231656322    -5.000000000
    0.112000    -0.040855114    -0.231656322    -0.041085858    -0.229852018    -5.000000000
    0.113000    -0.041085858    -0.229852018    -0.041314805    -0.228061767    -5.000000000
    0.114000    -0.041314805    -0.228061767    -0.041541968    -0.226285459    -5.000000000
    0.115000    -0.041541968    -0.226285459    -0.041767363    -0.224522985    -5.000000000
    0.116000    -0.041767363    -0.224522985    -0.041991001    -0.222774238    -5.000000000
    0.117000    -0.041991001    -0.222774238    -0.042212898    -0.221039111    -5.000000000
    0.118000    -0.042212898    -0.221039111    -0.042433067    -0.219317498    -5.000000000
    0.119000    -0.042433067    -0.219317498    -0.042651521    -0.217609293    -5.000000000
    0.120000    -0.042651521    -0.217609293    -0.042868273    -0.215914392    -5.000000000
    0.121000    -0.042868273    -0.215914392    -0.043083337    -0.214232691    -5.000000000
    0.122000    -0.043083337    -0.214232691    -0.043296726    -0.212564088    -5.000000000
    0.123000    -0.043296726    -0.212564088    -0.043508453    -0.210908481    -5.000000000
    0.124000    -0.043508453    -0.210908481    -0.043718531    -0.209265768    -5.000000000
    0.125000    -0.043718531    -0.209265768    -0.043926972    -0.207635849    -5.000000000
    0.126000    -0.043926972    -0.207635849    -0.044133790    -0.206018625    -5.000000000
    0.127000    -0.044133790    -0.206018625    -0.044338998    -0.204413996    -5.000000000
    0.128000    -0.044338998    -0.204413996    -0.044542607    -0.202821864    -5.000000000
    0.129000    -0.044542607    -0.202821864    -0.044744630    -0.201242133    -5.000000000
    0.130000    -0.044744630    -0.201242133    -0.044945079    -0.199674705    -5.000000000
    0.131000    -0.044945079    -0.199674705    -0.045143967    -0.198119485    -5.000000000
    0.132000    -0.045143967    -0.198119485    -0.045341307    -0.196576378    -5.000000000
    0.133000    -0.045341307    -0.196576378    -0.045537109    -0.195045289    -5.000000000
    0.134000    -0.045537109    -0.195045289    -0.045731386    -0.193526124    -5.000000000
    0.135000    -0.045731386    -0.193526124    -0.045924150    -0.192018792    -5.000000000
    0.136000    -0.045924150    -0.192018792    -0.046115412    -0.190523199    -5.000000000
    0.137000    -0.046115412    -0.190523199    -0.046305185    -0.189039255    -5.000000000
    0.138000    -0.046305185    -0.189039255    -0.046493480    -0.187566868    -5.000000000
    0.139000    -0.046493480    -0.187566868    -0.046680308    -0.186105949    -5.000000000
    0.140000    -0.046680308    -0.186105949    -0.046865681    -0.184656408    -5.000000000
    0.141000    -0.046865681    -0.184656408    -0.047049610    -0.183218156    -5.000000000
    0.142000    -0.047049610    -0.183218156    -0.047232107    -0.181791107    -5.000000000
    0.143000    -0.047232107    -0.181791107    -0.047413182    -0.180375172    -5.000000000
    0.144000    -0.047413182    -0.180375172    -0.047592847    -0.178970265    -5.000000000
    0.145000    -0.047592847    -0.178970265    -0.047771112    -0.177576300    -5.000000000
    0.146000    -0.047771112    -0.177576300    -0.047947989    -0.176193192    -5.000000000
    0.147000    -0.047947989    -0.176193192    -0.048123488    -0.174820856    -5.000000000
    0.148000    -0.048123488    -0.174820856    -0.048297621    -0.173459208    -5.000000000
    0.149000    -0.048297621    -0.173459208    -0.048470397    -0.172108166    -5.000000000
    0.150000    -0.048470397    -0.172108166    -0.048641827    -0.170767646    -5.000000000
    0.151000    -0.048641827    -0.170767646    -0.048811922    -0.169437567    -5.000000000
    0.152000    -0.048811922    -0.169437567    -0.048980692    -0.168117848    -5.000000000
    0.153000    -0.048980692    -0.168117848    -0.049148148    -0.166808407    -5.000000000
    0.154000    -0.049148148    -0.166808407    -0.049314300    -0.165509164    -5.000000000
    0.155000    -0.049314300    -0.165509164    -0.049479157    -0.164220041    -5.000000000
    0.156000    -0.049479157    -0.164220041    -0.049642730    -0.162940958    -5.000000000
    0.157000    -0.049642730    -0.162940958    -0.049805029    -0.161671837    -5.000000000
    0.158000    -0.049805029    -0.161671837    -0.049966065    -0.160412601    -5.000000000
    0.159000    -0.049966065    -0.160412601    -0.050125845    -0.159163172    -5.000000000
    0.160000    -0.050125845    -0.159163172    -0.050284382    -0.157923475    -5.000000000
    0.161000    -0.050284382    -0.157923475    -0.050441683    -0.156693433    -5.000000000
    0.162000    -0.050441683    -0.156693433    -0.050597760    -0.155472971    -5.000000000
    0.163000    -0.050597760    -0.155472971    -0.050752620    -0.154262015    -5.000000000
    0.164000    -0.050752620    -0.154262015    -0.050906275    -0.153060491    -5.000000000
    0.165000    -0.050906275    -0.153060491    -0.051058732    -0.151868324    -5.000000000
    0.166000    -0.051058732    -0.151868324    -0.051210002    -0.150685443    -5.000000000
    0.167000    -0.051210002    -0.150685443    -0.051360094    -0.149511775    -5.000000000
    0.168000    -0.051360094    -0.149511775    -0.051509017    -0.148347249    -5.000000000
    0.169000    -0.051509017    -0.148347249    -0.051656780    -0.147191792    -5.000000000
    0.170000    -0.051656780    -0.147191792    -0.051803392    -0.146045334    -5.000000000
    0.171000    -0.051803392    -0.146045334    -0.051948863    -0.144907806    -5.000000000
    0.172000    -0.051948863    -0.144907806    -0.052093200    -0.143779138    -5.000000000
    0.173000    -0.052093200    -0.143779138    -0.052236413    -0.142659260    -5.000000000
    0.174000    -0.052236413    -0.142659260    -0.052378510    -0.141548104    -5.000000000
    0.175000    -0.052378510    -0.141548104    -0.052519501    -0.140445603    -5.000000000
    0.176000    -0.052519501    -0.140445603    -0.052659393    -0.139351689    -5.000000000
    0.177000    -0.052659393    -0.139351689    -0.052798196    -0.138266295    -5.000000000
    0.178000    -0.052798196    -0.138266295    -0.052935918    -0.137189355    -5.000000000
    0.179000    -0.052935918    -0.137189355    -0.053072567    -0.136120802    -5.000000000
    0.180000    -0.053072567    -0.136120802    -0.053208151    -0.135060573    -5.000000000
    0.181000    -0.053208151    -0.135060573    -0.053342680    -0.134008600    -5.000000000
    0.182000    -0.053342680    -0.134008600    -0.053476161    -0.132964822    -5.000000000
    0.183000    -0.053476161    -0.132964822    -0.053608602    -0.131929173    -5.000000000
    0.184000    -0.053608602    -0.131929173    -0.053740012    -0.130901590    -5.000000000
    0.185000    -0.053740012    -0.130901590    -0.053870398    -0.129882011    -5.000000000
    0.186000    -0.053870398    -0.129882011    -0.053999768    -0.128870372    -5.000000000
    0.187000    -0.053999768    -0.128870372    -0.054128131    -0.127866614    -5.000000000
    0.188000    -0.054128131    -0.127866614    -0.054255494    -0.126870673    -5.000000000
    0.189000    -0.054255494    -0.126870673    -0.054381865    -0.125882489    -5.000000000
    0.190000    -0.054381865    -0.125882489    -0.054507252    -0.124902002    -5.000000000
    0.191000    -0.054507252    -0.124902002    -0.054631662    -0.123929151    -5.000000000
    0.192000    -0.054631662    -0.123929151    -0.054755103    -0.122963878    -5.000000000
    0.193000    -0.054755103    -0.122963878    -0.054877582    -0.122006123    -5.000000000
    0.194000    -0.054877582    -0.122006123    -0.054999108    -0.121055827    -5.000000000
    0.195000    -0.054999108    -0.121055827    -0.055119687    -0.120112933    -5.000000000
    0.196000    -0.055119687    -0.120112933    -0.055239327    -0.119177383    -5.000000000
    0.197000    -0.055239327    -0.119177383    -0.055358035    -0.118249120    -5.000000000
    0.198000    -0.055358035    -0.118249120    -0.055475818    -0.117328087    -5.000000000
    0.199000    -0.055475818    -0.117328087    -0.055592684    -0.116414227    -5.000000000
    0.200000    -0.055592684    -0.116414227    -0.055708640    -0.115507485    -5.000000000
    0.201000    -0.055708640    -0.115507485    -0.055823693    -0.114607805    -5.000000000
    0.202000    -0.055823693    -0.114607805    -0.055937849    -0.113715133    -5.000000000
    0.203000    -0.055937849    -0.113715133    -0.056051116    -0.112829414    -5.000000000
    0.204000    -0.056051116    -0.112829414    -0.056163501    -0.111950593    -5.000000000
    0.205000    -0.056163501    -0.111950593    -0.056275011    -0.111078617    -5.000000000
    0.206000    -0.056275011    -0.111078617    -0.056385652    -0.110213433    -5.000000000
    0.207000    -0.056385652    -0.110213433    -0.056495431    -0.109354987    -5.000000000
    0.208000    -0.056495431    -0.109354987    -0.056604356    -0.108503227    -5.000000000
    0.209000    -0.056604356    -0.108503227    -0.056712432    -0.107658102    -5.000000000
    0.210000    -0.056712432    -0.107658102    -0.056819666    -0.106819559    -5.000000000
    0.211000    -0.056819666    -0.106819559    -0.056926065    -0.105987548    -5.000000000
    0.212000    -0.056926065    -0.105987548    -0.057031635    -0.105162016    -5.000000000
