Voltage Amplitude:  7  Volts
Voltage Frequency:  2  Hz
Phase Difference:  180.0  Degrees

        time            y(t)            v(t)          y(t+1)          v(t+1)         Voltage
    0.000000     0.000000000     0.000000000    -0.000037383    -0.190094897     7.000000000
    0.000500    -0.000037383    -0.190094897    -0.000192696    -0.415599775    -7.000000000
    0.001000    -0.000192696    -0.415599775    -0.000439848    -0.559184481    -7.000000000
    0.001500    -0.000439848    -0.559184481    -0.000742478    -0.642755339    -7.000000000
    0.002000    -0.000742478    -0.642755339    -0.001076938    -0.690061972    -7.000000000
    0.002500    -0.001076938    -0.690061972    -0.001429230    -0.716204886    -7.000000000
    0.003000    -0.001429230    -0.716204886    -0.001791219    -0.730087031    -7.000000000
    0.003500    -0.001791219    -0.730087031    -0.002158198    -0.736879079    -7.000000000
    0.004000    -0.002158198    -0.736879079    -0.002527446    -0.739574516    -7.000000000
    0.004500    -0.002527446    -0.739574516    -0.002897390    -0.739905172    -7.000000000
    0.005000    -0.002897390    -0.739905172    -0.003267124    -0.738872805    -7.000000000
    0.005500    -0.003267124    -0.738872805    -0.003636127    -0.737056834    -7.000000000
    0.006000    -0.003636127    -0.737056834    -0.004004097    -0.734792393    -7.000000000
    0.006500    -0.004004097    -0.734792393    -0.004370865    -0.732273305    -7.000000000
    0.007000    -0.004370865    -0.732273305    -0.004736334    -0.729611667    -7.000000000
    0.007500    -0.004736334    -0.729611667    -0.005100450    -0.726872295    -7.000000000
    0.008000    -0.005100450    -0.726872295    -0.005463186    -0.724092664    -7.000000000
    0.008500    -0.005463186    -0.724092664    -0.005824526    -0.721294430    -7.000000000
    0.009000    -0.005824526    -0.721294430    -0.006184465    -0.718490102    -7.000000000
    0.009500    -0.006184465    -0.718490102    -0.006543002    -0.715686897    -7.000000000
    0.010000    -0.006543002    -0.715686897    -0.006900139    -0.712888970    -7.000000000
    0.010500    -0.006900139    -0.712888970    -0.007255879    -0.710098708    -7.000000000
    0.011000    -0.007255879    -0.710098708    -0.007610225    -0.707317472    -7.000000000
    0.011500    -0.007610225    -0.707317472    -0.007963184    -0.704546032    -7.000000000
    0.012000    -0.007963184    -0.704546032    -0.008314759    -0.701784816    -7.000000000
    0.012500    -0.008314759    -0.701784816    -0.008664957    -0.699034053    -7.000000000
    0.013000    -0.008664957    -0.699034053    -0.009013781    -0.696293858    -7.000000000
    0.013500    -0.009013781    -0.696293858    -0.009361239    -0.693564279    -7.000000000
    0.014000    -0.009361239    -0.693564279    -0.009707334    -0.690845327    -7.000000000
    0.014500    -0.009707334    -0.690845327    -0.010052072    -0.688136991    -7.000000000
    0.015000    -0.010052072    -0.688136991    -0.010395459    -0.685439246    -7.000000000
    0.015500    -0.010395459    -0.685439246    -0.010737500    -0.682752061    -7.000000000
    0.016000    -0.010737500    -0.682752061    -0.011078199    -0.680075401    -7.000000000
    0.016500    -0.011078199    -0.680075401    -0.011417563    -0.677409227    -7.000000000
    0.017000    -0.011417563    -0.677409227    -0.011755597    -0.674753501    -7.000000000
    0.017500    -0.011755597    -0.674753501    -0.012092305    -0.672108182    -7.000000000
    0.018000    -0.012092305    -0.672108182    -0.012427694    -0.669473231    -7.000000000
    0.018500    -0.012427694    -0.669473231    -0.012761767    -0.666848608    -7.000000000
    0.019000    -0.012761767    -0.666848608    -0.013094531    -0.664234271    -7.000000000
    0.019500    -0.013094531    -0.664234271    -0.013425990    -0.661630181    -7.000000000
    0.020000    -0.013425990    -0.661630181    -0.013756150    -0.659036298    -7.000000000
    0.020500    -0.013756150    -0.659036298    -0.014085015    -0.656452582    -7.000000000
    0.021000    -0.014085015    -0.656452582    -0.014412591    -0.653878993    -7.000000000
    0.021500    -0.014412591    -0.653878993    -0.014738883    -0.651315492    -7.000000000
    0.022000    -0.014738883    -0.651315492    -0.015063896    -0.648762038    -7.000000000
    0.022500    -0.015063896    -0.648762038    -0.015387634    -0.646218593    -7.000000000
    0.023000    -0.015387634    -0.646218593    -0.015710103    -0.643685117    -7.000000000
    0.023500    -0.015710103    -0.643685117    -0.016031308    -0.641161572    -7.000000000
    0.024000    -0.016031308    -0.641161572    -0.016351254    -0.638647917    -7.000000000
    0.024500    -0.016351254    -0.638647917    -0.016669945    -0.636144116    -7.000000000
    0.025000    -0.016669945    -0.636144116    -0.016987387    -0.633650128    -7.000000000
    0.025500    -0.016987387    -0.633650128    -0.017303585    -0.631165916    -7.000000000
    0.026000    -0.017303585    -0.631165916    -0.017618542    -0.628691441    -7.000000000
    0.026500    -0.017618542    -0.628691441    -0.017932265    -0.626226666    -7.000000000
    0.027000    -0.017932265    -0.626226666    -0.018244758    -0.623771551    -7.000000000
    0.027500    -0.018244758    -0.623771551    -0.018556026    -0.621326060    -7.000000000
    0.028000    -0.018556026    -0.621326060    -0.018866074    -0.618890154    -7.000000000
    0.028500    -0.018866074    -0.618890154    -0.019174906    -0.616463796    -7.000000000
    0.029000    -0.019174906    -0.616463796    -0.019482527    -0.614046949    -7.000000000
    0.029500    -0.019482527    -0.614046949    -0.019788942    -0.611639575    -7.000000000
    0.030000    -0.019788942    -0.611639575    -0.020094156    -0.609241637    -7.000000000
    0.030500    -0.020094156    -0.609241637    -0.020398173    -0.606853099    -7.000000000
    0.031000    -0.020398173    -0.606853099    -0.020700999    -0.604473922    -7.000000000
    0.031500    -0.020700999    -0.604473922    -0.021002637    -0.602104072    -7.000000000
    0.032000    -0.021002637    -0.602104072    -0.021303093    -0.599743511    -7.000000000
    0.032500    -0.021303093    -0.599743511    -0.021602370    -0.597392202    -7.000000000
    0.033000    -0.021602370    -0.597392202    -0.021900475    -0.595050110    -7.000000000
    0.033500    -0.021900475    -0.595050110    -0.022197410    -0.592717199    -7.000000000
    0.034000    -0.022197410    -0.592717199    -0.022493182    -0.590393431    -7.000000000
    0.034500    -0.022493182    -0.590393431    -0.022787794    -0.588078773    -7.000000000
    0.035000    -0.022787794    -0.588078773    -0.023081250    -0.585773187    -7.000000000
    0.035500    -0.023081250    -0.585773187    -0.023373557    -0.583476639    -7.000000000
    0.036000    -0.023373557    -0.583476639    -0.023664717    -0.581189093    -7.000000000
    0.036500    -0.023664717    -0.581189093    -0.023954736    -0.578910513    -7.000000000
    0.037000    -0.023954736    -0.578910513    -0.024243618    -0.576640865    -7.000000000
    0.037500    -0.024243618    -0.576640865    -0.024531367    -0.574380113    -7.000000000
    0.038000    -0.024531367    -0.574380113    -0.024817988    -0.572128223    -7.000000000
    0.038500    -0.024817988    -0.572128223    -0.025103485    -0.569885161    -7.000000000
    0.039000    -0.025103485    -0.569885161    -0.025387864    -0.567650890    -7.000000000
    0.039500    -0.025387864    -0.567650890    -0.025671127    -0.565425378    -7.000000000
    0.040000    -0.025671127    -0.565425378    -0.025953279    -0.563208589    -7.000000000
    0.040500    -0.025953279    -0.563208589    -0.026234326    -0.561000489    -7.000000000
    0.041000    -0.026234326    -0.561000489    -0.026514270    -0.558801045    -7.000000000
    0.041500    -0.026514270    -0.558801045    -0.026793117    -0.556610222    -7.000000000
    0.042000    -0.026793117    -0.556610222    -0.027070871    -0.554427987    -7.000000000
    0.042500    -0.027070871    -0.554427987    -0.027347536    -0.552254306    -7.000000000
    0.043000    -0.027347536    -0.552254306    -0.027623116    -0.550089146    -7.000000000
    0.043500    -0.027623116    -0.550089146    -0.027897615    -0.547932473    -7.000000000
    0.044000    -0.027897615    -0.547932473    -0.028171039    -0.545784253    -7.000000000
    0.044500    -0.028171039    -0.545784253    -0.028443390    -0.543644455    -7.000000000
    0.045000    -0.028443390    -0.543644455    -0.028714674    -0.541513044    -7.000000000
    0.045500    -0.028714674    -0.541513044    -0.028984894    -0.539389988    -7.000000000
    0.046000    -0.028984894    -0.539389988    -0.029254055    -0.537275254    -7.000000000
    0.046500    -0.029254055    -0.537275254    -0.029522160    -0.535168809    -7.000000000
    0.047000    -0.029522160    -0.535168809    -0.029789214    -0.533070622    -7.000000000
    0.047500    -0.029789214    -0.533070622    -0.030055222    -0.530980659    -7.000000000
    0.048000    -0.030055222    -0.530980659    -0.030320186    -0.528898889    -7.000000000
    0.048500    -0.030320186    -0.528898889    -0.030584112    -0.526825280    -7.000000000
    0.049000    -0.030584112    -0.526825280    -0.030847002    -0.524759798    -7.000000000
    0.049500    -0.030847002    -0.524759798    -0.031108862    -0.522702413    -7.000000000
    0.050000    -0.031108862    -0.522702413    -0.031369696    -0.520653093    -7.000000000
    0.050500    -0.031369696    -0.520653093    -0.031629507    -0.518611806    -7.000000000
    0.051000    -0.031629507    -0.518611806    -0.031888299    -0.516578521    -7.000000000
    0.051500    -0.031888299    -0.516578521    -0.032146076    -0.514553207    -7.000000000
    0.052000    -0.032146076    -0.514553207    -0.032402843    -0.512535831    -7.000000000
    0.052500    -0.032402843    -0.512535831    -0.032658603    -0.510526364    -7.000000000
    0.053000    -0.032658603    -0.510526364    -0.032913361    -0.508524773    -7.000000000
    0.053500    -0.032913361    -0.508524773    -0.033167120    -0.506531029    -7.000000000
    0.054000    -0.033167120    -0.506531029    -0.033419883    -0.504545100    -7.000000000
    0.054500    -0.033419883    -0.504545100    -0.033671656    -0.502566956    -7.000000000
    0.055000    -0.033671656    -0.502566956    -0.033922442    -0.500596566    -7.000000000
    0.055500    -0.033922442    -0.500596566    -0.034172244    -0.498633900    -7.000000000
    0.056000    -0.034172244    -0.498633900    -0.034421067    -0.496678928    -7.000000000
    0.056500    -0.034421067    -0.496678928    -0.034668914    -0.494731619    -7.000000000
    0.057000    -0.034668914    -0.494731619    -0.034915790    -0.492791944    -7.000000000
    0.057500    -0.034915790    -0.492791944    -0.035161698    -0.490859872    -7.000000000
    0.058000    -0.035161698    -0.490859872    -0.035406642    -0.488935374    -7.000000000
    0.058500    -0.035406642    -0.488935374    -0.035650625    -0.487018420    -7.000000000
    0.059000    -0.035650625    -0.487018420    -0.035893652    -0.485108981    -7.000000000
    0.059500    -0.035893652    -0.485108981    -0.036135726    -0.483207026    -7.000000000
    0.060000    -0.036135726    -0.483207026    -0.036376851    -0.481312528    -7.000000000
    0.060500    -0.036376851    -0.481312528    -0.036617030    -0.479425456    -7.000000000
    0.061000    -0.036617030    -0.479425456    -0.036856268    -0.477545781    -7.000000000
    0.061500    -0.036856268    -0.477545781    -0.037094568    -0.475673475    -7.000000000
    0.062000    -0.037094568    -0.475673475    -0.037331933    -0.473808508    -7.000000000
    0.062500    -0.037331933    -0.473808508    -0.037568368    -0.471950852    -7.000000000
    0.063000    -0.037568368    -0.471950852    -0.037803876    -0.470100478    -7.000000000
    0.063500    -0.037803876    -0.470100478    -0.038038461    -0.468257358    -7.000000000
    0.064000    -0.038038461    -0.468257358    -0.038272125    -0.466421463    -7.000000000
    0.064500    -0.038272125    -0.466421463    -0.038504874    -0.464592765    -7.000000000
    0.065000    -0.038504874    -0.464592765    -0.038736710    -0.462771235    -7.000000000
    0.065500    -0.038736710    -0.462771235    -0.038967637    -0.460956846    -7.000000000
    0.066000    -0.038967637    -0.460956846    -0.039197659    -0.459149570    -7.000000000
    0.066500    -0.039197659    -0.459149570    -0.039426779    -0.457349378    -7.000000000
    0.067000    -0.039426779    -0.457349378    -0.039655001    -0.455556243    -7.000000000
    0.067500    -0.039655001    -0.455556243    -0.039882328    -0.453770138    -7.000000000
    0.068000    -0.039882328    -0.453770138    -0.040108763    -0.451991034    -7.000000000
    0.068500    -0.040108763    -0.451991034    -0.040334311    -0.450218905    -7.000000000
    0.069000    -0.040334311    -0.450218905    -0.040558974    -0.448453722    -7.000000000
    0.069500    -0.040558974    -0.448453722    -0.040782757    -0.446695459    -7.000000000
    0.070000    -0.040782757    -0.446695459    -0.041005662    -0.444944089    -7.000000000
    0.070500    -0.041005662    -0.444944089    -0.041227693    -0.443199585    -7.000000000
    0.071000    -0.041227693    -0.443199585    -0.041448854    -0.441461919    -7.000000000
    0.071500    -0.041448854    -0.441461919    -0.041669148    -0.439731065    -7.000000000
    0.072000    -0.041669148    -0.439731065    -0.041888578    -0.438006996    -7.000000000
    0.072500    -0.041888578    -0.438006996    -0.042107147    -0.436289686    -7.000000000
    0.073000    -0.042107147    -0.436289686    -0.042324860    -0.434579108    -7.000000000
    0.073500    -0.042324860    -0.434579108    -0.042541719    -0.432875236    -7.000000000
    0.074000    -0.042541719    -0.432875236    -0.042757728    -0.431178043    -7.000000000
    0.074500    -0.042757728    -0.431178043    -0.042972890    -0.429487504    -7.000000000
    0.075000    -0.042972890    -0.429487504    -0.043187208    -0.427803592    -7.000000000
    0.075500    -0.043187208    -0.427803592    -0.043400686    -0.426126281    -7.000000000
    0.076000    -0.043400686    -0.426126281    -0.043613327    -0.424455545    -7.000000000
    0.076500    -0.043613327    -0.424455545    -0.043825134    -0.422791359    -7.000000000
    0.077000    -0.043825134    -0.422791359    -0.044036111    -0.421133697    -7.000000000
    0.077500    -0.044036111    -0.421133697    -0.044246261    -0.419482533    -7.000000000
    0.078000    -0.044246261    -0.419482533    -0.044455587    -0.417837842    -7.000000000
    0.078500    -0.044455587    -0.417837842    -0.044664092    -0.416199599    -7.000000000
    0.079000    -0.044664092    -0.416199599    -0.044871779    -0.414567778    -7.000000000
    0.079500    -0.044871779    -0.414567778    -0.045078652    -0.412942354    -7.000000000
    0.080000    -0.045078652    -0.412942354    -0.045284714    -0.411323302    -7.000000000
    0.080500    -0.045284714    -0.411323302    -0.045489969    -0.409710597    -7.000000000
    0.081000    -0.045489969    -0.409710597    -0.045694418    -0.408104214    -7.000000000
    0.081500    -0.045694418    -0.408104214    -0.045898066    -0.406504129    -7.000000000
    0.082000    -0.045898066    -0.406504129    -0.046100915    -0.404910316    -7.000000000
    0.082500    -0.046100915    -0.404910316    -0.046302969    -0.403322752    -7.000000000
    0.083000    -0.046302969    -0.403322752    -0.046504231    -0.401741411    -7.000000000
    0.083500    -0.046504231    -0.401741411    -0.046704704    -0.400166269    -7.000000000
    0.084000    -0.046704704    -0.400166269    -0.046904390    -0.398597303    -7.000000000
    0.084500    -0.046904390    -0.398597303    -0.047103294    -0.397034487    -7.000000000
    0.085000    -0.047103294    -0.397034487    -0.047301418    -0.395477798    -7.000000000
    0.085500    -0.047301418    -0.395477798    -0.047498765    -0.393927211    -7.000000000
    0.086000    -0.047498765    -0.393927211    -0.047695339    -0.392382703    -7.000000000
    0.086500    -0.047695339    -0.392382703    -0.047891141    -0.390844250    -7.000000000
    0.087000    -0.047891141    -0.390844250    -0.048086176    -0.389311828    -7.000000000
    0.087500    -0.048086176    -0.389311828    -0.048280446    -0.387785414    -7.000000000
    0.088000    -0.048280446    -0.387785414    -0.048473955    -0.386264984    -7.000000000
    0.088500    -0.048473955    -0.386264984    -0.048666705    -0.384750514    -7.000000000
    0.089000    -0.048666705    -0.384750514    -0.048858699    -0.383241981    -7.000000000
    0.089500    -0.048858699    -0.383241981    -0.049049940    -0.381739362    -7.000000000
    0.090000    -0.049049940    -0.381739362    -0.049240432    -0.380242634    -7.000000000
    0.090500    -0.049240432    -0.380242634    -0.049430176    -0.378751774    -7.000000000
    0.091000    -0.049430176    -0.378751774    -0.049619177    -0.377266758    -7.000000000
    0.091500    -0.049619177    -0.377266758    -0.049807437    -0.375787564    -7.000000000
    0.092000    -0.049807437    -0.375787564    -0.049994958    -0.374314169    -7.000000000
    0.092500    -0.049994958    -0.374314169    -0.050181745    -0.372846550    -7.000000000
    0.093000    -0.050181745    -0.372846550    -0.050367798    -0.371384685    -7.000000000
    0.093500    -0.050367798    -0.371384685    -0.050553123    -0.369928550    -7.000000000
    0.094000    -0.050553123    -0.369928550    -0.050737721    -0.368478125    -7.000000000
    0.094500    -0.050737721    -0.368478125    -0.050921595    -0.367033385    -7.000000000
    0.095000    -0.050921595    -0.367033385    -0.051104748    -0.365594309    -7.000000000
    0.095500    -0.051104748    -0.365594309    -0.051287183    -0.364160875    -7.000000000
    0.096000    -0.051287183    -0.364160875    -0.051468902    -0.362733060    -7.000000000
    0.096500    -0.051468902    -0.362733060    -0.051649910    -0.361310843    -7.000000000
    0.097000    -0.051649910    -0.361310843    -0.051830207    -0.359894202    -7.000000000
    0.097500    -0.051830207    -0.359894202    -0.052009798    -0.358483114    -7.000000000
    0.098000    -0.052009798    -0.358483114    -0.052188684    -0.357077558    -7.000000000
    0.098500    -0.052188684    -0.357077558    -0.052366869    -0.355677513    -7.000000000
    0.099000    -0.052366869    -0.355677513    -0.052544356    -0.354282956    -7.000000000
    0.099500    -0.052544356    -0.354282956    -0.052721146    -0.352893867    -7.000000000
    0.100000    -0.052721146    -0.352893867    -0.052897243    -0.351510223    -7.000000000
    0.100500    -0.052897243    -0.351510223    -0.053072650    -0.350132003    -7.000000000
    0.101000    -0.053072650    -0.350132003    -0.053247369    -0.348759187    -7.000000000
    0.101500    -0.053247369    -0.348759187    -0.053421404    -0.347391753    -7.000000000
    0.102000    -0.053421404    -0.347391753    -0.053594755    -0.346029679    -7.000000000
    0.102500    -0.053594755    -0.346029679    -0.053767427    -0.344672946    -7.000000000
    0.103000    -0.053767427    -0.344672946    -0.053939422    -0.343321531    -7.000000000
    0.103500    -0.053939422    -0.343321531    -0.054110743    -0.341975415    -7.000000000
    0.104000    -0.054110743    -0.341975415    -0.054281392    -0.340634576    -7.000000000
    0.104500    -0.054281392    -0.340634576    -0.054451372    -0.339298993    -7.000000000
    0.105000    -0.054451372    -0.339298993    -0.054620685    -0.337968647    -7.000000000
    0.105500    -0.054620685    -0.337968647    -0.054789335    -0.336643516    -7.000000000
    0.106000    -0.054789335    -0.336643516    -0.054957323    -0.335323580    -7.000000000
