Voltage Amplitude:  5  Volts
Voltage Frequency:  2  Hz
Phase Difference:  90.0  Degrees

        time            y(t)            v(t)          y(t+1)          v(t+1)         Voltage
    0.000000     0.000000000     0.000000000     0.000027718     0.138672076     5.000000000
    0.000500     0.000027718     0.138672076     0.000140268     0.300386422     5.000000000
    0.001000     0.000140268     0.300386422     0.000318679     0.403315934     5.000000000
    0.001500     0.000318679     0.403315934     0.000536815     0.463058063     5.000000000
    0.002000     0.000536815     0.463058063     0.000777662     0.496729664     5.000000000
    0.002500     0.000777662     0.496729664     0.001031172     0.515239105     5.000000000
    0.003000     0.001031172     0.515239105     0.001291529     0.525003010     5.000000000
    0.003500     0.001291529     0.525003010     0.001555381     0.529733112     5.000000000
    0.004000     0.001555381     0.529733112     0.001820801     0.531568501     5.000000000
    0.004500     0.001820801     0.531568501     0.002086680     0.531740893     5.000000000
    0.005000     0.002086680     0.531740893     0.002352383     0.530959385     5.000000000
    0.005500     0.002352383     0.530959385     0.002617544     0.529632178     5.000000000
    0.006000     0.002617544     0.529632178     0.002881956     0.527994250     5.000000000
    0.006500     0.002881956     0.527994250     0.003145501     0.526180858     5.000000000
    0.007000     0.003145501     0.526180858     0.003408112     0.524269852     5.000000000
    0.007500     0.003408112     0.524269852     0.003669752     0.522306035     5.000000000
    0.008000     0.003669752     0.522306035     0.003930403     0.520315185     5.000000000
    0.008500     0.003930403     0.520315185     0.004190056     0.518312131     5.000000000
    0.009000     0.004190056     0.518312131     0.004448705     0.516305393     5.000000000
    0.009500     0.004448705     0.516305393     0.004706351     0.514299865     5.000000000
    0.010000     0.004706351     0.514299865     0.004962996     0.512298351     5.000000000
    0.010500     0.004962996     0.512298351     0.005218640     0.510302452     5.000000000
    0.011000     0.005218640     0.510302452     0.005473289     0.508313077     5.000000000
    0.011500     0.005473289     0.508313077     0.005726945     0.506330737     5.000000000
    0.012000     0.005726945     0.506330737     0.005979611     0.504355711     5.000000000
    0.012500     0.005979611     0.504355711     0.006231292     0.502388150     5.000000000
    0.013000     0.006231292     0.502388150     0.006481991     0.500428126     5.000000000
    0.013500     0.006481991     0.500428126     0.006731711     0.498475669     5.000000000
    0.014000     0.006731711     0.498475669     0.006980458     0.496530784     5.000000000
    0.014500     0.006980458     0.496530784     0.007228234     0.494593459     5.000000000
    0.015000     0.007228234     0.494593459     0.007475043     0.492663677     5.000000000
    0.015500     0.007475043     0.492663677     0.007720889     0.490741416     5.000000000
    0.016000     0.007720889     0.490741416     0.007965776     0.488826648     5.000000000
    0.016500     0.007965776     0.488826648     0.008209707     0.486919348     5.000000000
    0.017000     0.008209707     0.486919348     0.008452687     0.485019487     5.000000000
    0.017500     0.008452687     0.485019487     0.008694719     0.483127038     5.000000000
    0.018000     0.008694719     0.483127038     0.008935806     0.481241971     5.000000000
    0.018500     0.008935806     0.481241971     0.009175952     0.479364257     5.000000000
    0.019000     0.009175952     0.479364257     0.009415162     0.477493870     5.000000000
    0.019500     0.009415162     0.477493870     0.009653438     0.475630779     5.000000000
    0.020000     0.009653438     0.475630779     0.009890785     0.473774957     5.000000000
    0.020500     0.009890785     0.473774957     0.010127205     0.471926375     5.000000000
    0.021000     0.010127205     0.471926375     0.010362703     0.470085005     5.000000000
    0.021500     0.010362703     0.470085005     0.010597282     0.468250819     5.000000000
    0.022000     0.010597282     0.468250819     0.010830946     0.466423788     5.000000000
    0.022500     0.010830946     0.466423788     0.011063698     0.464603886     5.000000000
    0.023000     0.011063698     0.464603886     0.011295542     0.462791084     5.000000000
    0.023500     0.011295542     0.462791084     0.011526481     0.460985354     5.000000000
    0.024000     0.011526481     0.460985354     0.011756519     0.459186669     5.000000000
    0.024500     0.011756519     0.459186669     0.011985660     0.457395002     5.000000000
    0.025000     0.011985660     0.457395002     0.012213907     0.455610324     5.000000000
    0.025500     0.012213907     0.455610324     0.012441263     0.453832609     5.000000000
    0.026000     0.012441263     0.453832609     0.012667732     0.452061830     5.000000000
    0.026500     0.012667732     0.452061830     0.012893317     0.450297959     5.000000000
    0.027000     0.012893317     0.450297959     0.013118022     0.448540970     5.000000000
    0.027500     0.013118022     0.448540970     0.013341850     0.446790836     5.000000000
    0.028000     0.013341850     0.446790836     0.013564805     0.445047530     5.000000000
    0.028500     0.013564805     0.445047530     0.013786890     0.443311025     5.000000000
    0.029000     0.013786890     0.443311025     0.014008109     0.441581295     5.000000000
    0.029500     0.014008109     0.441581295     0.014228464     0.439858313     5.000000000
    0.030000     0.014228464     0.439858313     0.014447959     0.438142053     5.000000000
    0.030500     0.014447959     0.438142053     0.014666599     0.436432490     5.000000000
    0.031000     0.014666599     0.436432490     0.014884385     0.434729596     5.000000000
    0.031500     0.014884385     0.434729596     0.015101321     0.433033346     5.000000000
    0.032000     0.015101321     0.433033346     0.015317410     0.431343713     5.000000000
    0.032500     0.015317410     0.431343713     0.015532657     0.429660673     5.000000000
    0.033000     0.015532657     0.429660673     0.015747064     0.427984199     5.000000000
    0.033500     0.015747064     0.427984199     0.015960634     0.426314265     5.000000000
    0.034000     0.015960634     0.426314265     0.016173371     0.424650847     5.000000000
    0.034500     0.016173371     0.424650847     0.016385278     0.422993919     5.000000000
    0.035000     0.016385278     0.422993919     0.016596358     0.421343455     5.000000000
    0.035500     0.016596358     0.421343455     0.016806614     0.419699430     5.000000000
    0.036000     0.016806614     0.419699430     0.017016050     0.418061819     5.000000000
    0.036500     0.017016050     0.418061819     0.017224669     0.416430597     5.000000000
    0.037000     0.017224669     0.416430597     0.017432473     0.414805740     5.000000000
    0.037500     0.017432473     0.414805740     0.017639467     0.413187222     5.000000000
    0.038000     0.017639467     0.413187222     0.017845654     0.411575018     5.000000000
    0.038500     0.017845654     0.411575018     0.018051035     0.409969105     5.000000000
    0.039000     0.018051035     0.409969105     0.018255616     0.408369457     5.000000000
    0.039500     0.018255616     0.408369457     0.018459398     0.406776050     5.000000000
    0.040000     0.018459398     0.406776050     0.018662385     0.405188860     5.000000000
    0.040500     0.018662385     0.405188860     0.018864580     0.403607862     5.000000000
    0.041000     0.018864580     0.403607862     0.019065986     0.402033032     5.000000000
    0.041500     0.019065986     0.402033032     0.019266606     0.400464347     5.000000000
    0.042000     0.019266606     0.400464347     0.019466443     0.398901781     5.000000000
    0.042500     0.019466443     0.398901781     0.019665501     0.397345312     5.000000000
    0.043000     0.019665501     0.397345312     0.019863782     0.395794916     5.000000000
    0.043500     0.019863782     0.395794916     0.020061289     0.394250569     5.000000000
    0.044000     0.020061289     0.394250569     0.020258026     0.392712247     5.000000000
    0.044500     0.020258026     0.392712247     0.020453995     0.391179926     5.000000000
    0.045000     0.020453995     0.391179926     0.020649199     0.389653584     5.000000000
    0.045500     0.020649199     0.389653584     0.020843642     0.388133197     5.000000000
    0.046000     0.020843642     0.388133197     0.021037326     0.386618742     5.000000000
    0.046500     0.021037326     0.386618742     0.021230254     0.385110196     5.000000000
    0.047000     0.021230254     0.385110196     0.021422429     0.383607535     5.000000000
    0.047500     0.021422429     0.383607535     0.021613855     0.382110737     5.000000000
    0.048000     0.021613855     0.382110737     0.021804534     0.380619779     5.000000000
    0.048500     0.021804534     0.380619779     0.021994468     0.379134638     5.000000000
    0.049000     0.021994468     0.379134638     0.022183662     0.377655291     5.000000000
    0.049500     0.022183662     0.377655291     0.022372117     0.376181716     5.000000000
    0.050000     0.022372117     0.376181716     0.022559837     0.374713890     5.000000000
    0.050500     0.022559837     0.374713890     0.022746825     0.373251791     5.000000000
    0.051000     0.022746825     0.373251791     0.022933083     0.371795397     5.000000000
    0.051500     0.022933083     0.371795397     0.023118614     0.370344684     5.000000000
    0.052000     0.023118614     0.370344684     0.023303421     0.368899632     5.000000000
    0.052500     0.023303421     0.368899632     0.023487507     0.367460217     5.000000000
    0.053000     0.023487507     0.367460217     0.023670875     0.366026419     5.000000000
    0.053500     0.023670875     0.366026419     0.023853527     0.364598215     5.000000000
    0.054000     0.023853527     0.364598215     0.024035467     0.363175583     5.000000000
    0.054500     0.024035467     0.363175583     0.024216697     0.361758501     5.000000000
    0.055000     0.024216697     0.361758501     0.024397219     0.360346948     5.000000000
    0.055500     0.024397219     0.360346948     0.024577038     0.358940903     5.000000000
    0.056000     0.024577038     0.358940903     0.024756154     0.357540343     5.000000000
    0.056500     0.024756154     0.357540343     0.024934572     0.356145248     5.000000000
    0.057000     0.024934572     0.356145248     0.025112293     0.354755596     5.000000000
    0.057500     0.025112293     0.354755596     0.025289321     0.353371365     5.000000000
    0.058000     0.025289321     0.353371365     0.025465659     0.351992536     5.000000000
    0.058500     0.025465659     0.351992536     0.025641308     0.350619086     5.000000000
    0.059000     0.025641308     0.350619086     0.025816272     0.349250994     5.000000000
    0.059500     0.025816272     0.349250994     0.025990553     0.347888241     5.000000000
    0.060000     0.025990553     0.347888241     0.026164154     0.346530804     5.000000000
    0.060500     0.026164154     0.346530804     0.026337078     0.345178664     5.000000000
    0.061000     0.026337078     0.345178664     0.026509327     0.343831799     5.000000000
    0.061500     0.026509327     0.343831799     0.026680904     0.342490189     5.000000000
    0.062000     0.026680904     0.342490189     0.026851811     0.341153813     5.000000000
    0.062500     0.026851811     0.341153813     0.027022052     0.339822652     5.000000000
    0.063000     0.027022052     0.339822652     0.027191628     0.338496684     5.000000000
    0.063500     0.027191628     0.338496684     0.027360543     0.337175889     5.000000000
    0.064000     0.027360543     0.337175889     0.027528798     0.335860248     5.000000000
    0.064500     0.027528798     0.335860248     0.027696397     0.334549740     5.000000000
    0.065000     0.027696397     0.334549740     0.027863342     0.333244345     5.000000000
    0.065500     0.027863342     0.333244345     0.028029636     0.331944043     5.000000000
    0.066000     0.028029636     0.331944043     0.028195281     0.330648815     5.000000000
    0.066500     0.028195281     0.330648815     0.028360279     0.329358640     5.000000000
    0.067000     0.028360279     0.329358640     0.028524634     0.328073499     5.000000000
    0.067500     0.028524634     0.328073499     0.028688347     0.326793372     5.000000000
    0.068000     0.028688347     0.326793372     0.028851422     0.325518239     5.000000000
    0.068500     0.028851422     0.325518239     0.029013860     0.324248082     5.000000000
    0.069000     0.029013860     0.324248082     0.029175664     0.322982880     5.000000000
    0.069500     0.029175664     0.322982880     0.029336837     0.321722615     5.000000000
    0.070000     0.029336837     0.321722615     0.029497381     0.320467267     5.000000000
    0.070500     0.029497381     0.320467267     0.029657299     0.319216817     5.000000000
    0.071000     0.029657299     0.319216817     0.029816593     0.317971245     5.000000000
    0.071500     0.029816593     0.317971245     0.029975265     0.316730534     5.000000000
    0.072000     0.029975265     0.316730534     0.030133318     0.315494663     5.000000000
    0.072500     0.030133318     0.315494663     0.030290754     0.314263614     5.000000000
    0.073000     0.030290754     0.314263614     0.030447576     0.313037369     5.000000000
    0.073500     0.030447576     0.313037369     0.030603786     0.311815908     5.000000000
    0.074000     0.030603786     0.311815908     0.030759387     0.310599212     5.000000000
    0.074500     0.030759387     0.310599212     0.030914380     0.309387264     5.000000000
    0.075000     0.030914380     0.309387264     0.031068769     0.308180044     5.000000000
    0.075500     0.031068769     0.308180044     0.031222555     0.306977535     5.000000000
    0.076000     0.031222555     0.306977535     0.031375741     0.305779717     5.000000000
    0.076500     0.031375741     0.305779717     0.031528329     0.304586573     5.000000000
    0.077000     0.031528329     0.304586573     0.031680322     0.303398084     5.000000000
    0.077500     0.031680322     0.303398084     0.031831722     0.302214232     5.000000000
    0.078000     0.031831722     0.302214232     0.031982532     0.301034999     5.000000000
    0.078500     0.031982532     0.301034999     0.032132752     0.299860367     5.000000000
    0.079000     0.032132752     0.299860367     0.032282387     0.298690318     5.000000000
    0.079500     0.032282387     0.298690318     0.032431437     0.297524835     5.000000000
    0.080000     0.032431437     0.297524835     0.032579907     0.296363899     5.000000000
    0.080500     0.032579907     0.296363899     0.032727796     0.295207492     5.000000000
    0.081000     0.032727796     0.295207492     0.032875109     0.294055597     5.000000000
    0.081500     0.032875109     0.294055597     0.033021847     0.292908197     5.000000000
    0.082000     0.033021847     0.292908197     0.033168012     0.291765274     5.000000000
    0.082500     0.033168012     0.291765274     0.033313607     0.290626810     5.000000000
    0.083000     0.033313607     0.290626810     0.033458634     0.289492787     5.000000000
    0.083500     0.033458634     0.289492787     0.033603095     0.288363190     5.000000000
    0.084000     0.033603095     0.288363190     0.033746992     0.287238000     5.000000000
    0.084500     0.033746992     0.287238000     0.033890328     0.286117200     5.000000000
    0.085000     0.033890328     0.286117200     0.034033105     0.285000773     5.000000000
    0.085500     0.034033105     0.285000773     0.034175324     0.283888702     5.000000000
    0.086000     0.034175324     0.283888702     0.034316989     0.282780970     5.000000000
    0.086500     0.034316989     0.282780970     0.034458100     0.281677560     5.000000000
    0.087000     0.034458100     0.281677560     0.034598661     0.280578455     5.000000000
    0.087500     0.034598661     0.280578455     0.034738674     0.279483639     5.000000000
    0.088000     0.034738674     0.279483639     0.034878140     0.278393095     5.000000000
    0.088500     0.034878140     0.278393095     0.035017062     0.277306805     5.000000000
    0.089000     0.035017062     0.277306805     0.035155442     0.276224754     5.000000000
    0.089500     0.035155442     0.276224754     0.035293282     0.275146925     5.000000000
    0.090000     0.035293282     0.275146925     0.035430585     0.274073301     5.000000000
    0.090500     0.035430585     0.274073301     0.035567351     0.273003866     5.000000000
    0.091000     0.035567351     0.273003866     0.035703584     0.271938604     5.000000000
    0.091500     0.035703584     0.271938604     0.035839285     0.270877498     5.000000000
    0.092000     0.035839285     0.270877498     0.035974457     0.269820532     5.000000000
    0.092500     0.035974457     0.269820532     0.036109101     0.268767690     5.000000000
    0.093000     0.036109101     0.268767690     0.036243220     0.267718957     5.000000000
    0.093500     0.036243220     0.267718957     0.036376815     0.266674315     5.000000000
    0.094000     0.036376815     0.266674315     0.036509890     0.265633749     5.000000000
    0.094500     0.036509890     0.265633749     0.036642445     0.264597243     5.000000000
    0.095000     0.036642445     0.264597243     0.036774482     0.263564781     5.000000000
    0.095500     0.036774482     0.263564781     0.036906005     0.262536348     5.000000000
    0.096000     0.036906005     0.262536348     0.037037014     0.261511928     5.000000000
    0.096500     0.037037014     0.261511928     0.037167512     0.260491504     5.000000000
    0.097000     0.037167512     0.260491504     0.037297501     0.259475062     5.000000000
    0.097500     0.037297501     0.259475062     0.037426983     0.258462586     5.000000000
    0.098000     0.037426983     0.258462586     0.037555960     0.257454060     5.000000000
    0.098500     0.037555960     0.257454060     0.037684433     0.256449470     5.000000000
    0.099000     0.037684433     0.256449470     0.037812405     0.255448799     5.000000000
    0.099500     0.037812405     0.255448799     0.037939877     0.254452032     5.000000000
    0.100000     0.037939877     0.254452032     0.038066852     0.253459155     5.000000000
    0.100500     0.038066852     0.253459155     0.038193332     0.252470152     5.000000000
    0.101000     0.038193332     0.252470152     0.038319318     0.251485007     5.000000000
    0.101500     0.038319318     0.251485007     0.038444813     0.250503706     5.000000000
    0.102000     0.038444813     0.250503706     0.038569818     0.249526235     5.000000000
    0.102500     0.038569818     0.249526235     0.038694335     0.248552577     5.000000000
    0.103000     0.038694335     0.248552577     0.038818366     0.247582718     5.000000000
    0.103500     0.038818366     0.247582718     0.038941913     0.246616643     5.000000000
    0.104000     0.038941913     0.246616643     0.039064978     0.245654338     5.000000000
    0.104500     0.039064978     0.245654338     0.039187563     0.244695787     5.000000000
    0.105000     0.039187563     0.244695787     0.039309670     0.243740976     5.000000000
    0.105500     0.039309670     0.243740976     0.039431300     0.242789891     5.000000000
    0.106000     0.039431300     0.242789891     0.039552456     0.241842517     5.000000000
