Voltage Amplitude:  1  Volts
Voltage Frequency:  1  Hz
Phase Difference:  90.0  Degrees

        time            y(t)            v(t)          y(t+1)          v(t+1)         Voltage
    0.000000     0.000000000     0.000000000     0.000023255     0.051891305     1.000000000
    0.001000     0.000023255     0.051891305     0.000093122     0.082152824     1.000000000
    0.002000     0.000093122     0.082152824     0.000181056     0.091724795     1.000000000
    0.003000     0.000181056     0.091724795     0.000274402     0.094326793     1.000000000
    0.004000     0.000274402     0.094326793     0.000369002     0.094670723     1.000000000
    0.005000     0.000369002     0.094670723     0.000463511     0.094287352     1.000000000
    0.006000     0.000463511     0.094287352     0.000557497     0.093672334     1.000000000
    0.007000     0.000557497     0.093672334     0.000650826     0.092986109     1.000000000
    0.008000     0.000650826     0.092986109     0.000743457     0.092280588     1.000000000
    0.009000     0.000743457     0.092280588     0.000835380     0.091572548     1.000000000
    0.010000     0.000835380     0.091572548     0.000926596     0.090867394     1.000000000
    0.011000     0.000926596     0.090867394     0.001017109     0.090166844     1.000000000
    0.012000     0.001017109     0.090166844     0.001106924     0.089471428     1.000000000
    0.013000     0.001106924     0.089471428     0.001196046     0.088781289     1.000000000
    0.014000     0.001196046     0.088781289     0.001284482     0.088096446     1.000000000
    0.015000     0.001284482     0.088096446     0.001372234     0.087416876     1.000000000
    0.016000     0.001372234     0.087416876     0.001459310     0.086742546     1.000000000
    0.017000     0.001459310     0.086742546     0.001545714     0.086073416     1.000000000
    0.018000     0.001545714     0.086073416     0.001631452     0.085409448     1.000000000
    0.019000     0.001631452     0.085409448     0.001716528     0.084750601     1.000000000
    0.020000     0.001716528     0.084750601     0.001800948     0.084096837     1.000000000
    0.021000     0.001800948     0.084096837     0.001884717     0.083448115     1.000000000
    0.022000     0.001884717     0.083448115     0.001967840     0.082804398     1.000000000
    0.023000     0.001967840     0.082804398     0.002050321     0.082165647     1.000000000
    0.024000     0.002050321     0.082165647     0.002132166     0.081531823     1.000000000
    0.025000     0.002132166     0.081531823     0.002213380     0.080902888     1.000000000
    0.026000     0.002213380     0.080902888     0.002293968     0.080278804     1.000000000
    0.027000     0.002293968     0.080278804     0.002373933     0.079659535     1.000000000
    0.028000     0.002373933     0.079659535     0.002453282     0.079045043     1.000000000
    0.029000     0.002453282     0.079045043     0.002532019     0.078435291     1.000000000
    0.030000     0.002532019     0.078435291     0.002610148     0.077830243     1.000000000
    0.031000     0.002610148     0.077830243     0.002687675     0.077229861     1.000000000
    0.032000     0.002687675     0.077229861     0.002764603     0.076634112     1.000000000
    0.033000     0.002764603     0.076634112     0.002840939     0.076042957     1.000000000
    0.034000     0.002840939     0.076042957     0.002916685     0.075456363     1.000000000
    0.035000     0.002916685     0.075456363     0.002991847     0.074874294     1.000000000
    0.036000     0.002991847     0.074874294     0.003066429     0.074296715     1.000000000
    0.037000     0.003066429     0.074296715     0.003140436     0.073723592     1.000000000
    0.038000     0.003140436     0.073723592     0.003213872     0.073154889     1.000000000
    0.039000     0.003213872     0.073154889     0.003286742     0.072590573     1.000000000
    0.040000     0.003286742     0.072590573     0.003359049     0.072030611     1.000000000
    0.041000     0.003359049     0.072030611     0.003430799     0.071474968     1.000000000
    0.042000     0.003430799     0.071474968     0.003501995     0.070923611     1.000000000
    0.043000     0.003501995     0.070923611     0.003572642     0.070376507     1.000000000
    0.044000     0.003572642     0.070376507     0.003642744     0.069833624     1.000000000
    0.045000     0.003642744     0.069833624     0.003712305     0.069294928     1.000000000
    0.046000     0.003712305     0.069294928     0.003781330     0.068760388     1.000000000
    0.047000     0.003781330     0.068760388     0.003849822     0.068229972     1.000000000
    0.048000     0.003849822     0.068229972     0.003917786     0.067703647     1.000000000
    0.049000     0.003917786     0.067703647     0.003985225     0.067181382     1.000000000
    0.050000     0.003985225     0.067181382     0.004052145     0.066663145     1.000000000
    0.051000     0.004052145     0.066663145     0.004118548     0.066148907     1.000000000
    0.052000     0.004118548     0.066148907     0.004184439     0.065638635     1.000000000
    0.053000     0.004184439     0.065638635     0.004249821     0.065132300     1.000000000
    0.054000     0.004249821     0.065132300     0.004314700     0.064629870     1.000000000
    0.055000     0.004314700     0.064629870     0.004379077     0.064131316     1.000000000
    0.056000     0.004379077     0.064131316     0.004442959     0.063636608     1.000000000
    0.057000     0.004442959     0.063636608     0.004506347     0.063145716     1.000000000
    0.058000     0.004506347     0.063145716     0.004569246     0.062658610     1.000000000
    0.059000     0.004569246     0.062658610     0.004631661     0.062175263     1.000000000
    0.060000     0.004631661     0.062175263     0.004693593     0.061695643     1.000000000
    0.061000     0.004693593     0.061695643     0.004755048     0.061219724     1.000000000
    0.062000     0.004755048     0.061219724     0.004816029     0.060747476     1.000000000
    0.063000     0.004816029     0.060747476     0.004876540     0.060278870     1.000000000
    0.064000     0.004876540     0.060278870     0.004936584     0.059813880     1.000000000
    0.065000     0.004936584     0.059813880     0.004996164     0.059352476     1.000000000
    0.066000     0.004996164     0.059352476     0.005055285     0.058894632     1.000000000
    0.067000     0.005055285     0.058894632     0.005113950     0.058440319     1.000000000
    0.068000     0.005113950     0.058440319     0.005172162     0.057989511     1.000000000
    0.069000     0.005172162     0.057989511     0.005229926     0.057542181     1.000000000
    0.070000     0.005229926     0.057542181     0.005287243     0.057098301     1.000000000
    0.071000     0.005287243     0.057098301     0.005344119     0.056657845     1.000000000
    0.072000     0.005344119     0.056657845     0.005400556     0.056220787     1.000000000
    0.073000     0.005400556     0.056220787     0.005456557     0.055787101     1.000000000
    0.074000     0.005456557     0.055787101     0.005512127     0.055356759     1.000000000
    0.075000     0.005512127     0.055356759     0.005567268     0.054929738     1.000000000
    0.076000     0.005567268     0.054929738     0.005621983     0.054506010     1.000000000
    0.077000     0.005621983     0.054506010     0.005676277     0.054085551     1.000000000
    0.078000     0.005676277     0.054085551     0.005730151     0.053668336     1.000000000
    0.079000     0.005730151     0.053668336     0.005783610     0.053254339     1.000000000
    0.080000     0.005783610     0.053254339     0.005836657     0.052843535     1.000000000
    0.081000     0.005836657     0.052843535     0.005889294     0.052435901     1.000000000
    0.082000     0.005889294     0.052435901     0.005941526     0.052031411     1.000000000
    0.083000     0.005941526     0.052031411     0.005993354     0.051630041     1.000000000
    0.084000     0.005993354     0.051630041     0.006044783     0.051231767     1.000000000
    0.085000     0.006044783     0.051231767     0.006095815     0.050836566     1.000000000
    0.086000     0.006095815     0.050836566     0.006146453     0.050444413     1.000000000
    0.087000     0.006146453     0.050444413     0.006196701     0.050055285     1.000000000
    0.088000     0.006196701     0.050055285     0.006246561     0.049669159     1.000000000
    0.089000     0.006246561     0.049669159     0.006296036     0.049286011     1.000000000
    0.090000     0.006296036     0.049286011     0.006345130     0.048905819     1.000000000
    0.091000     0.006345130     0.048905819     0.006393845     0.048528560     1.000000000
    0.092000     0.006393845     0.048528560     0.006442184     0.048154211     1.000000000
    0.093000     0.006442184     0.048154211     0.006490151     0.047782750     1.000000000
    0.094000     0.006490151     0.047782750     0.006537747     0.047414154     1.000000000
    0.095000     0.006537747     0.047414154     0.006584976     0.047048402     1.000000000
    0.096000     0.006584976     0.047048402     0.006631841     0.046685471     1.000000000
    0.097000     0.006631841     0.046685471     0.006678344     0.046325339     1.000000000
    0.098000     0.006678344     0.046325339     0.006724489     0.045967986     1.000000000
    0.099000     0.006724489     0.045967986     0.006770278     0.045613389     1.000000000
    0.100000     0.006770278     0.045613389     0.006815713     0.045261528     1.000000000
    0.101000     0.006815713     0.045261528     0.006860798     0.044912380     1.000000000
    0.102000     0.006860798     0.044912380     0.006905535     0.044565927     1.000000000
    0.103000     0.006905535     0.044565927     0.006949927     0.044222145     1.000000000
    0.104000     0.006949927     0.044222145     0.006993977     0.043881016     1.000000000
    0.105000     0.006993977     0.043881016     0.007037687     0.043542518     1.000000000
    0.106000     0.007037687     0.043542518     0.007081060     0.043206631     1.000000000
    0.107000     0.007081060     0.043206631     0.007124098     0.042873335     1.000000000
    0.108000     0.007124098     0.042873335     0.007166804     0.042542611     1.000000000
    0.109000     0.007166804     0.042542611     0.007209181     0.042214437     1.000000000
    0.110000     0.007209181     0.042214437     0.007251230     0.041888795     1.000000000
    0.111000     0.007251230     0.041888795     0.007292956     0.041565665     1.000000000
    0.112000     0.007292956     0.041565665     0.007334359     0.041245028     1.000000000
    0.113000     0.007334359     0.041245028     0.007375443     0.040926864     1.000000000
    0.114000     0.007375443     0.040926864     0.007416211     0.040611154     1.000000000
    0.115000     0.007416211     0.040611154     0.007456663     0.040297880     1.000000000
    0.116000     0.007456663     0.040297880     0.007496804     0.039987022     1.000000000
    0.117000     0.007496804     0.039987022     0.007536635     0.039678562     1.000000000
    0.118000     0.007536635     0.039678562     0.007576159     0.039372482     1.000000000
    0.119000     0.007576159     0.039372482     0.007615378     0.039068763     1.000000000
    0.120000     0.007615378     0.039068763     0.007654294     0.038767387     1.000000000
    0.121000     0.007654294     0.038767387     0.007692910     0.038468335     1.000000000
    0.122000     0.007692910     0.038468335     0.007731229     0.038171590     1.000000000
    0.123000     0.007731229     0.038171590     0.007769251     0.037877135     1.000000000
    0.124000     0.007769251     0.037877135     0.007806981     0.037584951     1.000000000
    0.125000     0.007806981     0.037584951     0.007844419     0.037295021     1.000000000
    0.126000     0.007844419     0.037295021     0.007881569     0.037007327     1.000000000
    0.127000     0.007881569     0.037007327     0.007918432     0.036721852     1.000000000
    0.128000     0.007918432     0.036721852     0.007955010     0.036438580     1.000000000
    0.129000     0.007955010     0.036438580     0.007991307     0.036157493     1.000000000
    0.130000     0.007991307     0.036157493     0.008027323     0.035878574     1.000000000
    0.131000     0.008027323     0.035878574     0.008063062     0.035601807     1.000000000
    0.132000     0.008063062     0.035601807     0.008098525     0.035327175     1.000000000
    0.133000     0.008098525     0.035327175     0.008133714     0.035054661     1.000000000
    0.134000     0.008133714     0.035054661     0.008168632     0.034784249     1.000000000
    0.135000     0.008168632     0.034784249     0.008203281     0.034515924     1.000000000
    0.136000     0.008203281     0.034515924     0.008237662     0.034249668     1.000000000
    0.137000     0.008237662     0.034249668     0.008271778     0.033985466     1.000000000
    0.138000     0.008271778     0.033985466     0.008305631     0.033723302     1.000000000
    0.139000     0.008305631     0.033723302     0.008339223     0.033463161     1.000000000
    0.140000     0.008339223     0.033463161     0.008372555     0.033205026     1.000000000
    0.141000     0.008372555     0.033205026     0.008405631     0.032948882     1.000000000
    0.142000     0.008405631     0.032948882     0.008438451     0.032694715     1.000000000
    0.143000     0.008438451     0.032694715     0.008471018     0.032442508     1.000000000
    0.144000     0.008471018     0.032442508     0.008503334     0.032192246     1.000000000
    0.145000     0.008503334     0.032192246     0.008535401     0.031943915     1.000000000
    0.146000     0.008535401     0.031943915     0.008567220     0.031697500     1.000000000
    0.147000     0.008567220     0.031697500     0.008598794     0.031452985     1.000000000
    0.148000     0.008598794     0.031452985     0.008630124     0.031210357     1.000000000
    0.149000     0.008630124     0.031210357     0.008661213     0.030969600     1.000000000
    0.150000     0.008661213     0.030969600     0.008692062     0.030730701     1.000000000
    0.151000     0.008692062     0.030730701     0.008722673     0.030493644     1.000000000
    0.152000     0.008722673     0.030493644     0.008753047     0.030258416     1.000000000
    0.153000     0.008753047     0.030258416     0.008783188     0.030025003     1.000000000
    0.154000     0.008783188     0.030025003     0.008813096     0.029793390     1.000000000
    0.155000     0.008813096     0.029793390     0.008842773     0.029563564     1.000000000
    0.156000     0.008842773     0.029563564     0.008872221     0.029335510     1.000000000
    0.157000     0.008872221     0.029335510     0.008901442     0.029109216     1.000000000
    0.158000     0.008901442     0.029109216     0.008930438     0.028884668     1.000000000
    0.159000     0.008930438     0.028884668     0.008959210     0.028661851     1.000000000
    0.160000     0.008959210     0.028661851     0.008987760     0.028440754     1.000000000
    0.161000     0.008987760     0.028440754     0.009016090     0.028221362     1.000000000
    0.162000     0.009016090     0.028221362     0.009044201     0.028003662     1.000000000
    0.163000     0.009044201     0.028003662     0.009072095     0.027787642     1.000000000
    0.164000     0.009072095     0.027787642     0.009099775     0.027573288     1.000000000
    0.165000     0.009099775     0.027573288     0.009127240     0.027360588     1.000000000
    0.166000     0.009127240     0.027360588     0.009154494     0.027149528     1.000000000
    0.167000     0.009154494     0.027149528     0.009181538     0.026940097     1.000000000
    0.168000     0.009181538     0.026940097     0.009208373     0.026732281     1.000000000
    0.169000     0.009208373     0.026732281     0.009235001     0.026526068     1.000000000
    0.170000     0.009235001     0.026526068     0.009261424     0.026321446     1.000000000
    0.171000     0.009261424     0.026321446     0.009287642     0.026118402     1.000000000
    0.172000     0.009287642     0.026118402     0.009313659     0.025916925     1.000000000
    0.173000     0.009313659     0.025916925     0.009339475     0.025717001     1.000000000
    0.174000     0.009339475     0.025717001     0.009365091     0.025518620     1.000000000
    0.175000     0.009365091     0.025518620     0.009390511     0.025321770     1.000000000
    0.176000     0.009390511     0.025321770     0.009415734     0.025126438     1.000000000
    0.177000     0.009415734     0.025126438     0.009440762     0.024932612     1.000000000
    0.178000     0.009440762     0.024932612     0.009465597     0.024740282     1.000000000
    0.179000     0.009465597     0.024740282     0.009490241     0.024549435     1.000000000
    0.180000     0.009490241     0.024549435     0.009514695     0.024360061     1.000000000
    0.181000     0.009514695     0.024360061     0.009538960     0.024172147     1.000000000
    0.182000     0.009538960     0.024172147     0.009563038     0.023985683     1.000000000
    0.183000     0.009563038     0.023985683     0.009586930     0.023800658     1.000000000
    0.184000     0.009586930     0.023800658     0.009610638     0.023617059     1.000000000
    0.185000     0.009610638     0.023617059     0.009634163     0.023434877     1.000000000
    0.186000     0.009634163     0.023434877     0.009657506     0.023254101     1.000000000
    0.187000     0.009657506     0.023254101     0.009680669     0.023074718     1.000000000
    0.188000     0.009680669     0.023074718     0.009703654     0.022896720     1.000000000
    0.189000     0.009703654     0.022896720     0.009726462     0.022720095     1.000000000
    0.190000     0.009726462     0.022720095     0.009749093     0.022544832     1.000000000
    0.191000     0.009749093     0.022544832     0.009771550     0.022370921     1.000000000
    0.192000     0.009771550     0.022370921     0.009793834     0.022198351     1.000000000
    0.193000     0.009793834     0.022198351     0.009815945     0.022027113     1.000000000
    0.194000     0.009815945     0.022027113     0.009837887     0.021857196     1.000000000
    0.195000     0.009837887     0.021857196     0.009859658     0.021688590     1.000000000
    0.196000     0.009859658     0.021688590     0.009881262     0.021521284     1.000000000
    0.197000     0.009881262     0.021521284     0.009902700     0.021355269     1.000000000
    0.198000     0.009902700     0.021355269     0.009923972     0.021190534     1.000000000
    0.199000     0.009923972     0.021190534     0.009945080     0.021027070     1.000000000
    0.200000     0.009945080     0.021027070     0.009966025     0.020864867     1.000000000
    0.201000     0.009966025     0.020864867     0.009986808     0.020703915     1.000000000
    0.202000     0.009986808     0.020703915     0.010007431     0.020544205     1.000000000
    0.203000     0.010007431     0.020544205     0.010027895     0.020385727     1.000000000
    0.204000     0.010027895     0.020385727     0.010048202     0.020228472     1.000000000
    0.205000     0.010048202     0.020228472     0.010068351     0.020072429     1.000000000
    0.206000     0.010068351     0.020072429     0.010088345     0.019917590     1.000000000
    0.207000     0.010088345     0.019917590     0.010108185     0.019763946     1.000000000
    0.208000     0.010108185     0.019763946     0.010127872     0.019611487     1.000000000
    0.209000     0.010127872     0.019611487     0.010147407     0.019460204     1.000000000
    0.210000     0.010147407     0.019460204     0.010166791     0.019310088     1.000000000
    0.211000     0.010166791     0.019310088     0.010186026     0.019161130     1.000000000
    0.212000     0.010186026     0.019161130     0.010205113     0.019013321     1.000000000
