Voltage Amplitude:  5  Volts
Voltage Frequency:  0.1  Hz
Phase Difference:  90.0  Degrees

        time            y(t)            v(t)          y(t+1)          v(t+1)         Voltage
    0.000000     0.000000000     0.000000000     0.004757553     0.513902512     5.000000000
    0.010000     0.004757553     0.513902512     0.009699005     0.475271920     5.000000000
    0.020000     0.009699005     0.475271920     0.014268948     0.439539384     5.000000000
    0.030000     0.014268948     0.439539384     0.018495306     0.406493076     5.000000000
    0.040000     0.018495306     0.406493076     0.022403909     0.375931093     5.000000000
    0.050000     0.022403909     0.375931093     0.026018644     0.347666704     5.000000000
    0.060000     0.026018644     0.347666704     0.029361605     0.321527208     5.000000000
    0.070000     0.029361605     0.321527208     0.032453223     0.297352881     5.000000000
    0.080000     0.032453223     0.297352881     0.035312393     0.274996001     5.000000000
    0.090000     0.035312393     0.274996001     0.037956593     0.254319950     5.000000000
    0.100000     0.037956593     0.254319950     0.040401983     0.235198373     5.000000000
    0.110000     0.040401983     0.235198373     0.042663511     0.217514416     5.000000000
    0.120000     0.042663511     0.217514416     0.044755001     0.201160005     5.000000000
    0.130000     0.044755001     0.201160005     0.046689235     0.186035188     5.000000000
    0.140000     0.046689235     0.186035188     0.048478039     0.172047527     5.000000000
    0.150000     0.048478039     0.172047527     0.050132345     0.159111533     5.000000000
    0.160000     0.050132345     0.159111533     0.051662266     0.147148142     5.000000000
    0.170000     0.051662266     0.147148142     0.053077154     0.136084233     5.000000000
    0.180000     0.053077154     0.136084233     0.054385658     0.125852181     5.000000000
    0.190000     0.054385658     0.125852181     0.055595777     0.116389446     5.000000000
    0.200000     0.055595777     0.116389446     0.056714908     0.107638188     5.000000000
    0.210000     0.056714908     0.107638188     0.057749891     0.099544917     5.000000000
    0.220000     0.057749891     0.099544917     0.058707055     0.092060161     5.000000000
    0.230000     0.058707055     0.092060161     0.059592250     0.085138170     5.000000000
    0.240000     0.059592250     0.085138170     0.060410887     0.078736633     5.000000000
    0.250000     0.060410887     0.078736633     0.061167971     0.072816418     5.000000000
    0.260000     0.061167971     0.072816418     0.061868129     0.067341338     5.000000000
    0.270000     0.061868129     0.067341338     0.062515643     0.062277923     5.000000000
    0.280000     0.062515643     0.062277923     0.063114469     0.057595223     5.000000000
    0.290000     0.063114469     0.057595223     0.063668270     0.053264612     5.000000000
    0.300000     0.063668270     0.053264612     0.064180430     0.049259618     5.000000000
    0.310000     0.064180430     0.049259618     0.064654080     0.045555758     5.000000000
    0.320000     0.064654080     0.045555758     0.065092117     0.042130390     5.000000000
    0.330000     0.065092117     0.042130390     0.065497217     0.038962576     5.000000000
    0.340000     0.065497217     0.038962576     0.065871857     0.036032950     5.000000000
    0.350000     0.065871857     0.036032950     0.066218328     0.033323602     5.000000000
    0.360000     0.066218328     0.033323602     0.066538747     0.030817972     5.000000000
    0.370000     0.066538747     0.030817972     0.066835074     0.028500740     5.000000000
    0.380000     0.066835074     0.028500740     0.067109120     0.026357742     5.000000000
    0.390000     0.067109120     0.026357742     0.067362560     0.024375878     5.000000000
    0.400000     0.067362560     0.024375878     0.067596943     0.022543030     5.000000000
    0.410000     0.067596943     0.022543030     0.067813703     0.020847996     5.000000000
    0.420000     0.067813703     0.020847996     0.068014165     0.019280413     5.000000000
    0.430000     0.068014165     0.019280413     0.068199554     0.017830697     5.000000000
    0.440000     0.068199554     0.017830697     0.068371003     0.016489986     5.000000000
    0.450000     0.068371003     0.016489986     0.068529560     0.015250085     5.000000000
    0.460000     0.068529560     0.015250085     0.068676196     0.014103413     5.000000000
    0.470000     0.068676196     0.014103413     0.068811806     0.013042961     5.000000000
    0.480000     0.068811806     0.013042961     0.068937219     0.012062244     5.000000000
    0.490000     0.068937219     0.012062244     0.069053202     0.011155269     5.000000000
    0.500000     0.069053202     0.011155269     0.069160464     0.010316491     5.000000000
    0.510000     0.069160464     0.010316491     0.069259661     0.009540781     5.000000000
    0.520000     0.069259661     0.009540781     0.069351399     0.008823397     5.000000000
    0.530000     0.069351399     0.008823397     0.069436240     0.008159954     5.000000000
    0.540000     0.069436240     0.008159954     0.069514701     0.007546397     5.000000000
    0.550000     0.069514701     0.007546397     0.069587262     0.006978973     5.000000000
    0.560000     0.069587262     0.006978973     0.069654368     0.006454215     5.000000000
    0.570000     0.069654368     0.006454215     0.069716428     0.005968914     5.000000000
    0.580000     0.069716428     0.005968914     0.069773821     0.005520103     5.000000000
    0.590000     0.069773821     0.005520103     0.069826899     0.005105039     5.000000000
    0.600000     0.069826899     0.005105039     0.069875986     0.004721184     5.000000000
    0.610000     0.069875986     0.004721184     0.069921382     0.004366192     5.000000000
    0.620000     0.069921382     0.004366192     0.069963365     0.004037892     5.000000000
    0.630000     0.069963365     0.004037892     0.070002191     0.003734278     5.000000000
    0.640000     0.070002191     0.003734278     0.070038097     0.003453492     5.000000000
    0.650000     0.070038097     0.003453492     0.070071304     0.003193819     5.000000000
    0.660000     0.070071304     0.003193819     0.070102014     0.002953671     5.000000000
    0.670000     0.070102014     0.002953671     0.070130414     0.002731581     5.000000000
    0.680000     0.070130414     0.002731581     0.070156679     0.002526189     5.000000000
    0.690000     0.070156679     0.002526189     0.070180970     0.002336242     5.000000000
    0.700000     0.070180970     0.002336242     0.070203434     0.002160576     5.000000000
    0.710000     0.070203434     0.002160576     0.070224208     0.001998120     5.000000000
    0.720000     0.070224208     0.001998120     0.070243421     0.001847878     5.000000000
    0.730000     0.070243421     0.001847878     0.070261189     0.001708934     5.000000000
    0.740000     0.070261189     0.001708934     0.070277621     0.001580436     5.000000000
    0.750000     0.070277621     0.001580436     0.070292818     0.001461601     5.000000000
    0.760000     0.070292818     0.001461601     0.070306872     0.001351701     5.000000000
    0.770000     0.070306872     0.001351701     0.070319869     0.001250065     5.000000000
    0.780000     0.070319869     0.001250065     0.070331889     0.001156071     5.000000000
    0.790000     0.070331889     0.001156071     0.070343005     0.001069144     5.000000000
    0.800000     0.070343005     0.001069144     0.070353285     0.000988754     5.000000000
    0.810000     0.070353285     0.000988754     0.070362792     0.000914408     5.000000000
    0.820000     0.070362792     0.000914408     0.070371584     0.000845652     5.000000000
    0.830000     0.070371584     0.000845652     0.070379716     0.000782066     5.000000000
    0.840000     0.070379716     0.000782066     0.070387236     0.000723262     5.000000000
    0.850000     0.070387236     0.000723262     0.070394190     0.000668879     5.000000000
    0.860000     0.070394190     0.000668879     0.070400622     0.000618585     5.000000000
    0.870000     0.070400622     0.000618585     0.070406569     0.000572072     5.000000000
    0.880000     0.070406569     0.000572072     0.070412070     0.000529058     5.000000000
    0.890000     0.070412070     0.000529058     0.070417157     0.000489277     5.000000000
    0.900000     0.070417157     0.000489277     0.070421862     0.000452487     5.000000000
    0.910000     0.070421862     0.000452487     0.070426213     0.000418464     5.000000000
    0.920000     0.070426213     0.000418464     0.070430236     0.000386999     5.000000000
    0.930000     0.070430236     0.000386999     0.070433958     0.000357900     5.000000000
    0.940000     0.070433958     0.000357900     0.070437399     0.000330989     5.000000000
    0.950000     0.070437399     0.000330989     0.070440581     0.000306102     5.000000000
    0.960000     0.070440581     0.000306102     0.070443525     0.000283085     5.000000000
    0.970000     0.070443525     0.000283085     0.070446247     0.000261800     5.000000000
    0.980000     0.070446247     0.000261800     0.070448764     0.000242115     5.000000000
    0.990000     0.070448764     0.000242115     0.070451092     0.000223910     5.000000000
    1.000000     0.070451092     0.000223910     0.070453245     0.000207074     5.000000000
    1.010000     0.070453245     0.000207074     0.070455236     0.000191504     5.000000000
    1.020000     0.070455236     0.000191504     0.070457078     0.000177104     5.000000000
    1.030000     0.070457078     0.000177104     0.070458780     0.000163787     5.000000000
    1.040000     0.070458780     0.000163787     0.070460355     0.000151472     5.000000000
    1.050000     0.070460355     0.000151472     0.070461812     0.000140083     5.000000000
    1.060000     0.070461812     0.000140083     0.070463159     0.000129550     5.000000000
    1.070000     0.070463159     0.000129550     0.070464404     0.000119809     5.000000000
    1.080000     0.070464404     0.000119809     0.070465556     0.000110800     5.000000000
    1.090000     0.070465556     0.000110800     0.070466622     0.000102469     5.000000000
    1.100000     0.070466622     0.000102469     0.070467607     0.000094764     5.000000000
    1.110000     0.070467607     0.000094764     0.070468518     0.000087639     5.000000000
    1.120000     0.070468518     0.000087639     0.070469361     0.000081049     5.000000000
    1.130000     0.070469361     0.000081049     0.070470140     0.000074955     5.000000000
    1.140000     0.070470140     0.000074955     0.070470861     0.000069319     5.000000000
    1.150000     0.070470861     0.000069319     0.070471528     0.000064107     5.000000000
    1.160000     0.070471528     0.000064107     0.070472144     0.000059286     5.000000000
    1.170000     0.070472144     0.000059286     0.070472714     0.000054828     5.000000000
    1.180000     0.070472714     0.000054828     0.070473241     0.000050706     5.000000000
    1.190000     0.070473241     0.000050706     0.070473729     0.000046893     5.000000000
    1.200000     0.070473729     0.000046893     0.070474180     0.000043367     5.000000000
    1.210000     0.070474180     0.000043367     0.070474597     0.000040106     5.000000000
    1.220000     0.070474597     0.000040106     0.070474982     0.000037091     5.000000000
    1.230000     0.070474982     0.000037091     0.070475339     0.000034302     5.000000000
    1.240000     0.070475339     0.000034302     0.070475669     0.000031723     5.000000000
    1.250000     0.070475669     0.000031723     0.070475974     0.000029337     5.000000000
    1.260000     0.070475974     0.000029337     0.070476256     0.000027131     5.000000000
    1.270000     0.070476256     0.000027131     0.070476517     0.000025091     5.000000000
    1.280000     0.070476517     0.000025091     0.070476758     0.000023205     5.000000000
    1.290000     0.070476758     0.000023205     0.070476981     0.000021460     5.000000000
    1.300000     0.070476981     0.000021460     0.070477187     0.000019846     5.000000000
    1.310000     0.070477187     0.000019846     0.070477378     0.000018354     5.000000000
    1.320000     0.070477378     0.000018354     0.070477555     0.000016974     5.000000000
    1.330000     0.070477555     0.000016974     0.070477718     0.000015698     5.000000000
    1.340000     0.070477718     0.000015698     0.070477869     0.000014517     5.000000000
    1.350000     0.070477869     0.000014517     0.070478009     0.000013426     5.000000000
    1.360000     0.070478009     0.000013426     0.070478138     0.000012416     5.000000000
    1.370000     0.070478138     0.000012416     0.070478257     0.000011483     5.000000000
    1.380000     0.070478257     0.000011483     0.070478367     0.000010619     5.000000000
    1.390000     0.070478367     0.000010619     0.070478470     0.000009821     5.000000000
    1.400000     0.070478470     0.000009821     0.070478564     0.000009082     5.000000000
    1.410000     0.070478564     0.000009082     0.070478651     0.000008399     5.000000000
    1.420000     0.070478651     0.000008399     0.070478732     0.000007768     5.000000000
    1.430000     0.070478732     0.000007768     0.070478807     0.000007184     5.000000000
    1.440000     0.070478807     0.000007184     0.070478876     0.000006644     5.000000000
    1.450000     0.070478876     0.000006644     0.070478940     0.000006144     5.000000000
    1.460000     0.070478940     0.000006144     0.070478999     0.000005682     5.000000000
    1.470000     0.070478999     0.000005682     0.070479053     0.000005255     5.000000000
    1.480000     0.070479053     0.000005255     0.070479104     0.000004860     5.000000000
    1.490000     0.070479104     0.000004860     0.070479151     0.000004494     5.000000000
    1.500000     0.070479151     0.000004494     0.070479194     0.000004156     5.000000000
    1.510000     0.070479194     0.000004156     0.070479234     0.000003844     5.000000000
    1.520000     0.070479234     0.000003844     0.070479271     0.000003555     5.000000000
    1.530000     0.070479271     0.000003555     0.070479305     0.000003288     5.000000000
    1.540000     0.070479305     0.000003288     0.070479337     0.000003040     5.000000000
    1.550000     0.070479337     0.000003040     0.070479366     0.000002812     5.000000000
    1.560000     0.070479366     0.000002812     0.070479393     0.000002600     5.000000000
    1.570000     0.070479393     0.000002600     0.070479418     0.000002405     5.000000000
    1.580000     0.070479418     0.000002405     0.070479441     0.000002224     5.000000000
    1.590000     0.070479441     0.000002224     0.070479462     0.000002057     5.000000000
    1.600000     0.070479462     0.000002057     0.070479482     0.000001902     5.000000000
    1.610000     0.070479482     0.000001902     0.070479500     0.000001759     5.000000000
    1.620000     0.070479500     0.000001759     0.070479517     0.000001627     5.000000000
    1.630000     0.070479517     0.000001627     0.070479533     0.000001504     5.000000000
    1.640000     0.070479533     0.000001504     0.070479547     0.000001391     5.000000000
    1.650000     0.070479547     0.000001391     0.070479561     0.000001287     5.000000000
    1.660000     0.070479561     0.000001287     0.070479573     0.000001190     5.000000000
    1.670000     0.070479573     0.000001190     0.070479585     0.000001101     5.000000000
    1.680000     0.070479585     0.000001101     0.070479595     0.000001018     5.000000000
    1.690000     0.070479595     0.000001018     0.070479605     0.000000941     5.000000000
    1.700000     0.070479605     0.000000941     0.070479614     0.000000870     5.000000000
    1.710000     0.070479614     0.000000870     0.070479622     0.000000805     5.000000000
    1.720000     0.070479622     0.000000805     0.070479630     0.000000744     5.000000000
    1.730000     0.070479630     0.000000744     0.070479637     0.000000689     5.000000000
    1.740000     0.070479637     0.000000689     0.070479644     0.000000637     5.000000000
    1.750000     0.070479644     0.000000637     0.070479650     0.000000589     5.000000000
    1.760000     0.070479650     0.000000589     0.070479656     0.000000545     5.000000000
    1.770000     0.070479656     0.000000545     0.070479661     0.000000504     5.000000000
    1.780000     0.070479661     0.000000504     0.070479666     0.000000466     5.000000000
    1.790000     0.070479666     0.000000466     0.070479670     0.000000431     5.000000000
    1.800000     0.070479670     0.000000431     0.070479674     0.000000398     5.000000000
    1.810000     0.070479674     0.000000398     0.070479678     0.000000368     5.000000000
    1.820000     0.070479678     0.000000368     0.070479682     0.000000341     5.000000000
    1.830000     0.070479682     0.000000341     0.070479685     0.000000315     5.000000000
    1.840000     0.070479685     0.000000315     0.070479688     0.000000291     5.000000000
    1.850000     0.070479688     0.000000291     0.070479691     0.000000269     5.000000000
    1.860000     0.070479691     0.000000269     0.070479694     0.000000249     5.000000000
    1.870000     0.070479694     0.000000249     0.070479696     0.000000230     5.000000000
    1.880000     0.070479696     0.000000230     0.070479698     0.000000213     5.000000000
    1.890000     0.070479698     0.000000213     0.070479700     0.000000197     5.000000000
    1.900000     0.070479700     0.000000197     0.070479702     0.000000182     5.000000000
    1.910000     0.070479702     0.000000182     0.070479704     0.000000169     5.000000000
    1.920000     0.070479704     0.000000169     0.070479705     0.000000156     5.000000000
    1.930000     0.070479705     0.000000156     0.070479707     0.000000144     5.000000000
    1.940000     0.070479707     0.000000144     0.070479708     0.000000133     5.000000000
    1.950000     0.070479708     0.000000133     0.070479710     0.000000123     5.000000000
    1.960000     0.070479710     0.000000123     0.070479711     0.000000114     5.000000000
    1.970000     0.070479711     0.000000114     0.070479712     0.000000105     5.000000000
    1.980000     0.070479712     0.000000105     0.070479713     0.000000098     5.000000000
    1.990000     0.070479713     0.000000098     0.070479714     0.000000090     5.000000000
    2.000000     0.070479714     0.000000090     0.070479715     0.000000083     5.000000000
    2.010000     0.070479715     0.000000083     0.070479716     0.000000077     5.000000000
    2.020000     0.070479716     0.000000077     0.070479716     0.000000071     5.000000000
    2.030000     0.070479716     0.000000071     0.070479717     0.000000066     5.000000000
    2.040000     0.070479717     0.000000066     0.070479718     0.000000061     5.000000000
    2.050000     0.070479718     0.000000061     0.070479718     0.000000056     5.000000000
    2.060000     0.070479718     0.000000056     0.070479719     0.000000052     5.000000000
    2.070000     0.070479719     0.000000052     0.070479719     0.000000048     5.000000000
    2.080000     0.070479719     0.000000048     0.070479720     0.000000045     5.000000000
    2.090000     0.070479720     0.000000045     0.070479720     0.000000041     5.000000000
    2.100000     0.070479720     0.000000041     0.070479721     0.000000038     5.000000000
    2.110000     0.070479721     0.000000038     0.070479721     0.000000035     5.000000000
    2.120000     0.070479721     0.000000035     0.070479721     0.000000033     5.000000000
