Voltage Amplitude:  5  Volts
Voltage Frequency:  1  Hz
Phase Difference:  180.0  Degrees

        time            y(t)            v(t)          y(t+1)          v(t+1)         Voltage
    0.000000     0.000000000     0.000000000    -0.000135481    -0.295956422     5.000000000
    0.001000    -0.000135481    -0.295956422    -0.000529931    -0.461850297    -5.000000000
    0.002000    -0.000529931    -0.461850297    -0.001023782    -0.514966415    -5.000000000
    0.003000    -0.001023782    -0.514966415    -0.001547908    -0.529710908    -5.000000000
    0.004000    -0.001547908    -0.529710908    -0.002079229    -0.531781901    -5.000000000
    0.005000    -0.002079229    -0.531781901    -0.002610138    -0.529687434    -5.000000000
    0.006000    -0.002610138    -0.529687434    -0.003138142    -0.526238458    -5.000000000
    0.007000    -0.003138142    -0.526238458    -0.003662442    -0.522363463    -5.000000000
    0.008000    -0.003662442    -0.522363463    -0.004182792    -0.518369027    -5.000000000
    0.009000    -0.004182792    -0.518369027    -0.004699134    -0.514356267    -5.000000000
    0.010000    -0.004699134    -0.514356267    -0.005211470    -0.510358426    -5.000000000
    0.011000    -0.005211470    -0.510358426    -0.005719820    -0.506386322    -5.000000000
    0.012000    -0.005719820    -0.506386322    -0.006224213    -0.502443368    -5.000000000
    0.013000    -0.006224213    -0.502443368    -0.006724678    -0.498530529    -5.000000000
    0.014000    -0.006724678    -0.498530529    -0.007221245    -0.494647966    -5.000000000
    0.015000    -0.007221245    -0.494647966    -0.007713945    -0.490795574    -5.000000000
    0.016000    -0.007713945    -0.490795574    -0.008202808    -0.486973160    -5.000000000
    0.017000    -0.008202808    -0.486973160    -0.008687863    -0.483180505    -5.000000000
    0.018000    -0.008687863    -0.483180505    -0.009169141    -0.479417383    -5.000000000
    0.019000    -0.009169141    -0.479417383    -0.009646670    -0.475683564    -5.000000000
    0.020000    -0.009646670    -0.475683564    -0.010120480    -0.471978822    -5.000000000
    0.021000    -0.010120480    -0.471978822    -0.010590600    -0.468302930    -5.000000000
    0.022000    -0.010590600    -0.468302930    -0.011057059    -0.464655664    -5.000000000
    0.023000    -0.011057059    -0.464655664    -0.011519885    -0.461036800    -5.000000000
    0.024000    -0.011519885    -0.461036800    -0.011979106    -0.457446118    -5.000000000
    0.025000    -0.011979106    -0.457446118    -0.012434751    -0.453883398    -5.000000000
    0.026000    -0.012434751    -0.453883398    -0.012886847    -0.450348422    -5.000000000
    0.027000    -0.012886847    -0.450348422    -0.013335421    -0.446840975    -5.000000000
    0.028000    -0.013335421    -0.446840975    -0.013780503    -0.443360842    -5.000000000
    0.029000    -0.013780503    -0.443360842    -0.014222118    -0.439907811    -5.000000000
    0.030000    -0.014222118    -0.439907811    -0.014660293    -0.436481670    -5.000000000
    0.031000    -0.014660293    -0.436481670    -0.015095056    -0.433082210    -5.000000000
    0.032000    -0.015095056    -0.433082210    -0.015526432    -0.429709223    -5.000000000
    0.033000    -0.015526432    -0.429709223    -0.015954449    -0.426362503    -5.000000000
    0.034000    -0.015954449    -0.426362503    -0.016379133    -0.423041847    -5.000000000
    0.035000    -0.016379133    -0.423041847    -0.016800508    -0.419747050    -5.000000000
    0.036000    -0.016800508    -0.419747050    -0.017218602    -0.416477911    -5.000000000
    0.037000    -0.017218602    -0.416477911    -0.017633440    -0.413234231    -5.000000000
    0.038000    -0.017633440    -0.413234231    -0.018045047    -0.410015812    -5.000000000
    0.039000    -0.018045047    -0.410015812    -0.018453448    -0.406822456    -5.000000000
    0.040000    -0.018453448    -0.406822456    -0.018858668    -0.403653969    -5.000000000
    0.041000    -0.018858668    -0.403653969    -0.019260733    -0.400510157    -5.000000000
    0.042000    -0.019260733    -0.400510157    -0.019659666    -0.397390828    -5.000000000
    0.043000    -0.019659666    -0.397390828    -0.020055491    -0.394295791    -5.000000000
    0.044000    -0.020055491    -0.394295791    -0.020448234    -0.391224857    -5.000000000
    0.045000    -0.020448234    -0.391224857    -0.020837919    -0.388177838    -5.000000000
    0.046000    -0.020837919    -0.388177838    -0.021224568    -0.385154549    -5.000000000
    0.047000    -0.021224568    -0.385154549    -0.021608205    -0.382154804    -5.000000000
    0.048000    -0.021608205    -0.382154804    -0.021988855    -0.379178420    -5.000000000
    0.049000    -0.021988855    -0.379178420    -0.022366540    -0.376225216    -5.000000000
    0.050000    -0.022366540    -0.376225216    -0.022741284    -0.373295010    -5.000000000
    0.051000    -0.022741284    -0.373295010    -0.023113109    -0.370387624    -5.000000000
    0.052000    -0.023113109    -0.370387624    -0.023482038    -0.367502880    -5.000000000
    0.053000    -0.023482038    -0.367502880    -0.023848093    -0.364640601    -5.000000000
    0.054000    -0.023848093    -0.364640601    -0.024211298    -0.361800613    -5.000000000
    0.055000    -0.024211298    -0.361800613    -0.024571674    -0.358982743    -5.000000000
    0.056000    -0.024571674    -0.358982743    -0.024929243    -0.356186817    -5.000000000
    0.057000    -0.024929243    -0.356186817    -0.025284027    -0.353412666    -5.000000000
    0.058000    -0.025284027    -0.353412666    -0.025636047    -0.350660119    -5.000000000
    0.059000    -0.025636047    -0.350660119    -0.025985327    -0.347929008    -5.000000000
    0.060000    -0.025985327    -0.347929008    -0.026331885    -0.345219167    -5.000000000
    0.061000    -0.026331885    -0.345219167    -0.026675745    -0.342530430    -5.000000000
    0.062000    -0.026675745    -0.342530430    -0.027016926    -0.339862632    -5.000000000
    0.063000    -0.027016926    -0.339862632    -0.027355451    -0.337215611    -5.000000000
    0.064000    -0.027355451    -0.337215611    -0.027691338    -0.334589204    -5.000000000
    0.065000    -0.027691338    -0.334589204    -0.028024610    -0.331983252    -5.000000000
    0.066000    -0.028024610    -0.331983252    -0.028355285    -0.329397594    -5.000000000
    0.067000    -0.028355285    -0.329397594    -0.028683386    -0.326832073    -5.000000000
    0.068000    -0.028683386    -0.326832073    -0.029008931    -0.324286532    -5.000000000
    0.069000    -0.029008931    -0.324286532    -0.029331940    -0.321760816    -5.000000000
    0.070000    -0.029331940    -0.321760816    -0.029652434    -0.319254769    -5.000000000
    0.071000    -0.029652434    -0.319254769    -0.029970431    -0.316768240    -5.000000000
    0.072000    -0.029970431    -0.316768240    -0.030285952    -0.314301076    -5.000000000
    0.073000    -0.030285952    -0.314301076    -0.030599015    -0.311853125    -5.000000000
    0.074000    -0.030599015    -0.311853125    -0.030909640    -0.309424240    -5.000000000
    0.075000    -0.030909640    -0.309424240    -0.031217846    -0.307014270    -5.000000000
    0.076000    -0.031217846    -0.307014270    -0.031523651    -0.304623069    -5.000000000
    0.077000    -0.031523651    -0.304623069    -0.031827074    -0.302250491    -5.000000000
    0.078000    -0.031827074    -0.302250491    -0.032128134    -0.299896391    -5.000000000
    0.079000    -0.032128134    -0.299896391    -0.032426850    -0.297560624    -5.000000000
    0.080000    -0.032426850    -0.297560624    -0.032723238    -0.295243048    -5.000000000
    0.081000    -0.032723238    -0.295243048    -0.033017319    -0.292943522    -5.000000000
    0.082000    -0.033017319    -0.292943522    -0.033309109    -0.290661904    -5.000000000
    0.083000    -0.033309109    -0.290661904    -0.033598626    -0.288398056    -5.000000000
    0.084000    -0.033598626    -0.288398056    -0.033885888    -0.286151839    -5.000000000
    0.085000    -0.033885888    -0.286151839    -0.034170913    -0.283923115    -5.000000000
    0.086000    -0.034170913    -0.283923115    -0.034453718    -0.281711749    -5.000000000
    0.087000    -0.034453718    -0.281711749    -0.034734320    -0.279517605    -5.000000000
    0.088000    -0.034734320    -0.279517605    -0.035012737    -0.277340549    -5.000000000
    0.089000    -0.035012737    -0.277340549    -0.035288985    -0.275180449    -5.000000000
    0.090000    -0.035288985    -0.275180449    -0.035563082    -0.273037171    -5.000000000
    0.091000    -0.035563082    -0.273037171    -0.035835044    -0.270910586    -5.000000000
    0.092000    -0.035835044    -0.270910586    -0.036104887    -0.268800562    -5.000000000
    0.093000    -0.036104887    -0.268800562    -0.036372629    -0.266706972    -5.000000000
    0.094000    -0.036372629    -0.266706972    -0.036638286    -0.264629687    -5.000000000
    0.095000    -0.036638286    -0.264629687    -0.036901873    -0.262568580    -5.000000000
    0.096000    -0.036901873    -0.262568580    -0.037163408    -0.260523526    -5.000000000
    0.097000    -0.037163408    -0.260523526    -0.037422905    -0.258494398    -5.000000000
    0.098000    -0.037422905    -0.258494398    -0.037680382    -0.256481074    -5.000000000
    0.099000    -0.037680382    -0.256481074    -0.037935853    -0.254483430    -5.000000000
    0.100000    -0.037935853    -0.254483430    -0.038189334    -0.252501344    -5.000000000
    0.101000    -0.038189334    -0.252501344    -0.038440841    -0.250534694    -5.000000000
    0.102000    -0.038440841    -0.250534694    -0.038690389    -0.248583362    -5.000000000
    0.103000    -0.038690389    -0.248583362    -0.038937993    -0.246647227    -5.000000000
    0.104000    -0.038937993    -0.246647227    -0.039183669    -0.244726170    -5.000000000
    0.105000    -0.039183669    -0.244726170    -0.039427431    -0.242820076    -5.000000000
    0.106000    -0.039427431    -0.242820076    -0.039669295    -0.240928826    -5.000000000
    0.107000    -0.039669295    -0.240928826    -0.039909275    -0.239052306    -5.000000000
    0.108000    -0.039909275    -0.239052306    -0.040147386    -0.237190401    -5.000000000
    0.109000    -0.040147386    -0.237190401    -0.040383642    -0.235342997    -5.000000000
    0.110000    -0.040383642    -0.235342997    -0.040618058    -0.233509980    -5.000000000
    0.111000    -0.040618058    -0.233509980    -0.040850649    -0.231691240    -5.000000000
    0.112000    -0.040850649    -0.231691240    -0.041081427    -0.229886665    -5.000000000
    0.113000    -0.041081427    -0.229886665    -0.041310409    -0.228096144    -5.000000000
    0.114000    -0.041310409    -0.228096144    -0.041537606    -0.226319568    -5.000000000
    0.115000    -0.041537606    -0.226319568    -0.041763035    -0.224556829    -5.000000000
    0.116000    -0.041763035    -0.224556829    -0.041986707    -0.222807818    -5.000000000
    0.117000    -0.041986707    -0.222807818    -0.042208637    -0.221072430    -5.000000000
    0.118000    -0.042208637    -0.221072430    -0.042428839    -0.219350557    -5.000000000
    0.119000    -0.042428839    -0.219350557    -0.042647326    -0.217642094    -5.000000000
    0.120000    -0.042647326    -0.217642094    -0.042864111    -0.215946937    -5.000000000
    0.121000    -0.042864111    -0.215946937    -0.043079207    -0.214264983    -5.000000000
    0.122000    -0.043079207    -0.214264983    -0.043292628    -0.212596129    -5.000000000
    0.123000    -0.043292628    -0.212596129    -0.043504387    -0.210940272    -5.000000000
    0.124000    -0.043504387    -0.210940272    -0.043714497    -0.209297312    -5.000000000
    0.125000    -0.043714497    -0.209297312    -0.043922970    -0.207667147    -5.000000000
    0.126000    -0.043922970    -0.207667147    -0.044129819    -0.206049679    -5.000000000
    0.127000    -0.044129819    -0.206049679    -0.044335057    -0.204444808    -5.000000000
    0.128000    -0.044335057    -0.204444808    -0.044538697    -0.202852437    -5.000000000
    0.129000    -0.044538697    -0.202852437    -0.044740750    -0.201272467    -5.000000000
    0.130000    -0.044740750    -0.201272467    -0.044941230    -0.199704803    -5.000000000
    0.131000    -0.044941230    -0.199704803    -0.045140148    -0.198149349    -5.000000000
    0.132000    -0.045140148    -0.198149349    -0.045337517    -0.196606009    -5.000000000
    0.133000    -0.045337517    -0.196606009    -0.045533349    -0.195074689    -5.000000000
    0.134000    -0.045533349    -0.195074689    -0.045727655    -0.193555296    -5.000000000
    0.135000    -0.045727655    -0.193555296    -0.045920448    -0.192047736    -5.000000000
    0.136000    -0.045920448    -0.192047736    -0.046111740    -0.190551918    -5.000000000
    0.137000    -0.046111740    -0.190551918    -0.046301541    -0.189067750    -5.000000000
    0.138000    -0.046301541    -0.189067750    -0.046489864    -0.187595141    -5.000000000
    0.139000    -0.046489864    -0.187595141    -0.046676721    -0.186134002    -5.000000000
    0.140000    -0.046676721    -0.186134002    -0.046862122    -0.184684242    -5.000000000
    0.141000    -0.046862122    -0.184684242    -0.047046078    -0.183245774    -5.000000000
    0.142000    -0.047046078    -0.183245774    -0.047228603    -0.181818509    -5.000000000
    0.143000    -0.047228603    -0.181818509    -0.047409705    -0.180402361    -5.000000000
    0.144000    -0.047409705    -0.180402361    -0.047589397    -0.178997242    -5.000000000
    0.145000    -0.047589397    -0.178997242    -0.047767689    -0.177603067    -5.000000000
    0.146000    -0.047767689    -0.177603067    -0.047944593    -0.176219750    -5.000000000
    0.147000    -0.047944593    -0.176219750    -0.048120118    -0.174847208    -5.000000000
    0.148000    -0.048120118    -0.174847208    -0.048294277    -0.173485355    -5.000000000
    0.149000    -0.048294277    -0.173485355    -0.048467079    -0.172134109    -5.000000000
    0.150000    -0.048467079    -0.172134109    -0.048638535    -0.170793387    -5.000000000
    0.151000    -0.048638535    -0.170793387    -0.048808656    -0.169463108    -5.000000000
    0.152000    -0.048808656    -0.169463108    -0.048977452    -0.168143189    -5.000000000
    0.153000    -0.048977452    -0.168143189    -0.049144933    -0.166833551    -5.000000000
    0.154000    -0.049144933    -0.166833551    -0.049311109    -0.165534112    -5.000000000
    0.155000    -0.049311109    -0.165534112    -0.049475991    -0.164244795    -5.000000000
    0.156000    -0.049475991    -0.164244795    -0.049639589    -0.162965519    -5.000000000
    0.157000    -0.049639589    -0.162965519    -0.049801913    -0.161696207    -5.000000000
    0.158000    -0.049801913    -0.161696207    -0.049962972    -0.160436781    -5.000000000
    0.159000    -0.049962972    -0.160436781    -0.050122777    -0.159187164    -5.000000000
    0.160000    -0.050122777    -0.159187164    -0.050281337    -0.157947280    -5.000000000
    0.161000    -0.050281337    -0.157947280    -0.050438663    -0.156717052    -5.000000000
    0.162000    -0.050438663    -0.156717052    -0.050594762    -0.155496407    -5.000000000
    0.163000    -0.050594762    -0.155496407    -0.050749646    -0.154285268    -5.000000000
    0.164000    -0.050749646    -0.154285268    -0.050903324    -0.153083563    -5.000000000
    0.165000    -0.050903324    -0.153083563    -0.051055805    -0.151891217    -5.000000000
    0.166000    -0.051055805    -0.151891217    -0.051207098    -0.150708157    -5.000000000
    0.167000    -0.051207098    -0.150708157    -0.051357212    -0.149534312    -5.000000000
    0.168000    -0.051357212    -0.149534312    -0.051506158    -0.148369610    -5.000000000
    0.169000    -0.051506158    -0.148369610    -0.051653943    -0.147213979    -5.000000000
    0.170000    -0.051653943    -0.147213979    -0.051800577    -0.146067349    -5.000000000
    0.171000    -0.051800577    -0.146067349    -0.051946069    -0.144929649    -5.000000000
    0.172000    -0.051946069    -0.144929649    -0.052090428    -0.143800810    -5.000000000
    0.173000    -0.052090428    -0.143800810    -0.052233663    -0.142680764    -5.000000000
    0.174000    -0.052233663    -0.142680764    -0.052375781    -0.141569441    -5.000000000
    0.175000    -0.052375781    -0.141569441    -0.052516793    -0.140466774    -5.000000000
    0.176000    -0.052516793    -0.140466774    -0.052656707    -0.139372695    -5.000000000
    0.177000    -0.052656707    -0.139372695    -0.052795531    -0.138287137    -5.000000000
    0.178000    -0.052795531    -0.138287137    -0.052933273    -0.137210035    -5.000000000
    0.179000    -0.052933273    -0.137210035    -0.053069943    -0.136141321    -5.000000000
    0.180000    -0.053069943    -0.136141321    -0.053205548    -0.135080931    -5.000000000
    0.181000    -0.053205548    -0.135080931    -0.053340097    -0.134028801    -5.000000000
    0.182000    -0.053340097    -0.134028801    -0.053473598    -0.132984865    -5.000000000
    0.183000    -0.053473598    -0.132984865    -0.053606059    -0.131949059    -5.000000000
    0.184000    -0.053606059    -0.131949059    -0.053737488    -0.130921322    -5.000000000
    0.185000    -0.053737488    -0.130921322    -0.053867894    -0.129901589    -5.000000000
    0.186000    -0.053867894    -0.129901589    -0.053997284    -0.128889798    -5.000000000
    0.187000    -0.053997284    -0.128889798    -0.054125666    -0.127885888    -5.000000000
    0.188000    -0.054125666    -0.127885888    -0.054253048    -0.126889797    -5.000000000
    0.189000    -0.054253048    -0.126889797    -0.054379438    -0.125901464    -5.000000000
    0.190000    -0.054379438    -0.125901464    -0.054504844    -0.124920829    -5.000000000
    0.191000    -0.054504844    -0.124920829    -0.054629273    -0.123947832    -5.000000000
    0.192000    -0.054629273    -0.123947832    -0.054752732    -0.122982413    -5.000000000
    0.193000    -0.054752732    -0.122982413    -0.054875230    -0.122024514    -5.000000000
    0.194000    -0.054875230    -0.122024514    -0.054996774    -0.121074075    -5.000000000
    0.195000    -0.054996774    -0.121074075    -0.055117372    -0.120131039    -5.000000000
    0.196000    -0.055117372    -0.120131039    -0.055237030    -0.119195348    -5.000000000
    0.197000    -0.055237030    -0.119195348    -0.055355755    -0.118266945    -5.000000000
    0.198000    -0.055355755    -0.118266945    -0.055473557    -0.117345772    -5.000000000
    0.199000    -0.055473557    -0.117345772    -0.055590440    -0.116431775    -5.000000000
    0.200000    -0.055590440    -0.116431775    -0.055706413    -0.115524896    -5.000000000
    0.201000    -0.055706413    -0.115524896    -0.055821483    -0.114625081    -5.000000000
    0.202000    -0.055821483    -0.114625081    -0.055935657    -0.113732274    -5.000000000
    0.203000    -0.055935657    -0.113732274    -0.056048941    -0.112846422    -5.000000000
    0.204000    -0.056048941    -0.112846422    -0.056161343    -0.111967468    -5.000000000
    0.205000    -0.056161343    -0.111967468    -0.056272870    -0.111095361    -5.000000000
    0.206000    -0.056272870    -0.111095361    -0.056383528    -0.110230046    -5.000000000
    0.207000    -0.056383528    -0.110230046    -0.056493323    -0.109371471    -5.000000000
    0.208000    -0.056493323    -0.109371471    -0.056602264    -0.108519583    -5.000000000
    0.209000    -0.056602264    -0.108519583    -0.056710356    -0.107674330    -5.000000000
    0.210000    -0.056710356    -0.107674330    -0.056817607    -0.106835661    -5.000000000
    0.211000    -0.056817607    -0.106835661    -0.056924021    -0.106003524    -5.000000000
    0.212000    -0.056924021    -0.106003524    -0.057029608    -0.105177868    -5.000000000
