Voltage Amplitude:  7  Volts
Voltage Frequency:  1  Hz
Phase Difference:  180.0  Degrees

        time            y(t)            v(t)          y(t+1)          v(t+1)         Voltage
    0.000000     0.000000000     0.000000000    -0.000190063    -0.413035226     7.000000000
    0.001000    -0.000190063    -0.413035226    -0.000739142    -0.642282995    -7.000000000
    0.002000    -0.000739142    -0.642282995    -0.001425895    -0.716186757    -7.000000000
    0.003000    -0.001425895    -0.716186757    -0.002154944    -0.736930278    -7.000000000
    0.004000    -0.002154944    -0.736930278    -0.002894194    -0.739952249    -7.000000000
    0.005000    -0.002894194    -0.739952249    -0.003632965    -0.737093395    -7.000000000
    0.006000    -0.003632965    -0.737093395    -0.004367725    -0.732303265    -7.000000000
    0.007000    -0.004367725    -0.732303265    -0.005097325    -0.726898985    -7.000000000
    0.008000    -0.005097325    -0.726898985    -0.005821412    -0.721319637    -7.000000000
    0.009000    -0.005821412    -0.721319637    -0.006539899    -0.715711443    -7.000000000
    0.010000    -0.006539899    -0.715711443    -0.007252786    -0.710122944    -7.000000000
    0.011000    -0.007252786    -0.710122944    -0.007960101    -0.704570100    -7.000000000
    0.012000    -0.007960101    -0.704570100    -0.008661884    -0.699058008    -7.000000000
    0.013000    -0.008661884    -0.699058008    -0.009358177    -0.693588142    -7.000000000
    0.014000    -0.009358177    -0.693588142    -0.010049020    -0.688160770    -7.000000000
    0.015000    -0.010049020    -0.688160770    -0.010734458    -0.682775760    -7.000000000
    0.016000    -0.010734458    -0.682775760    -0.011414532    -0.677432846    -7.000000000
    0.017000    -0.011414532    -0.677432846    -0.012089285    -0.672131721    -7.000000000
    0.018000    -0.012089285    -0.672131721    -0.012758757    -0.666872067    -7.000000000
    0.019000    -0.012758757    -0.666872067    -0.013422990    -0.661653560    -7.000000000
    0.020000    -0.013422990    -0.661653560    -0.014082025    -0.656475881    -7.000000000
    0.021000    -0.014082025    -0.656475881    -0.014735904    -0.651338711    -7.000000000
    0.022000    -0.014735904    -0.651338711    -0.015384665    -0.646241731    -7.000000000
    0.023000    -0.015384665    -0.646241731    -0.016028350    -0.641184629    -7.000000000
    0.024000    -0.016028350    -0.641184629    -0.016666997    -0.636167093    -7.000000000
    0.025000    -0.016666997    -0.636167093    -0.017300647    -0.631188812    -7.000000000
    0.026000    -0.017300647    -0.631188812    -0.017929338    -0.626249480    -7.000000000
    0.027000    -0.017929338    -0.626249480    -0.018553110    -0.621348793    -7.000000000
    0.028000    -0.018553110    -0.621348793    -0.019172000    -0.616486448    -7.000000000
    0.029000    -0.019172000    -0.616486448    -0.019786047    -0.611662146    -7.000000000
    0.030000    -0.019786047    -0.611662146    -0.020395289    -0.606875588    -7.000000000
    0.031000    -0.020395289    -0.606875588    -0.020999763    -0.602126479    -7.000000000
    0.032000    -0.020999763    -0.602126479    -0.021599507    -0.597414528    -7.000000000
    0.033000    -0.021599507    -0.597414528    -0.022194557    -0.592739442    -7.000000000
    0.034000    -0.022194557    -0.592739442    -0.022784951    -0.588100935    -7.000000000
    0.035000    -0.022784951    -0.588100935    -0.023370725    -0.583498719    -7.000000000
    0.036000    -0.023370725    -0.583498719    -0.023951915    -0.578932511    -7.000000000
    0.037000    -0.023951915    -0.578932511    -0.024528556    -0.574402029    -7.000000000
    0.038000    -0.024528556    -0.574402029    -0.025100685    -0.569906994    -7.000000000
    0.039000    -0.025100685    -0.569906994    -0.025668337    -0.565447129    -7.000000000
    0.040000    -0.025668337    -0.565447129    -0.026231547    -0.561022158    -7.000000000
    0.041000    -0.026231547    -0.561022158    -0.026790349    -0.556631809    -7.000000000
    0.042000    -0.026790349    -0.556631809    -0.027344778    -0.552275810    -7.000000000
    0.043000    -0.027344778    -0.552275810    -0.027894869    -0.547953894    -7.000000000
    0.044000    -0.027894869    -0.547953894    -0.028440654    -0.543665793    -7.000000000
    0.045000    -0.028440654    -0.543665793    -0.028982169    -0.539411244    -7.000000000
    0.046000    -0.028982169    -0.539411244    -0.029519445    -0.535189983    -7.000000000
    0.047000    -0.029519445    -0.535189983    -0.030052518    -0.531001751    -7.000000000
    0.048000    -0.030052518    -0.531001751    -0.030581418    -0.526846288    -7.000000000
    0.049000    -0.030581418    -0.526846288    -0.031106180    -0.522723340    -7.000000000
    0.050000    -0.031106180    -0.522723340    -0.031626835    -0.518632650    -7.000000000
    0.051000    -0.031626835    -0.518632650    -0.032143415    -0.514573968    -7.000000000
    0.052000    -0.032143415    -0.514573968    -0.032655953    -0.510547042    -7.000000000
    0.053000    -0.032655953    -0.510547042    -0.033164479    -0.506551625    -7.000000000
    0.054000    -0.033164479    -0.506551625    -0.033669027    -0.502587470    -7.000000000
    0.055000    -0.033669027    -0.502587470    -0.034169625    -0.498654331    -7.000000000
    0.056000    -0.034169625    -0.498654331    -0.034666306    -0.494751968    -7.000000000
    0.057000    -0.034666306    -0.494751968    -0.035159100    -0.490880139    -7.000000000
    0.058000    -0.035159100    -0.490880139    -0.035648038    -0.487038604    -7.000000000
    0.059000    -0.035648038    -0.487038604    -0.036133149    -0.483227128    -7.000000000
    0.060000    -0.036133149    -0.483227128    -0.036614464    -0.479445475    -7.000000000
    0.061000    -0.036614464    -0.479445475    -0.037092013    -0.475693412    -7.000000000
    0.062000    -0.037092013    -0.475693412    -0.037565824    -0.471970708    -7.000000000
    0.063000    -0.037565824    -0.471970708    -0.038035927    -0.468277132    -7.000000000
    0.064000    -0.038035927    -0.468277132    -0.038502351    -0.464612456    -7.000000000
    0.065000    -0.038502351    -0.464612456    -0.038965125    -0.460976456    -7.000000000
    0.066000    -0.038965125    -0.460976456    -0.039424277    -0.457368906    -7.000000000
    0.067000    -0.039424277    -0.457368906    -0.039879836    -0.453789584    -7.000000000
    0.068000    -0.039879836    -0.453789584    -0.040331830    -0.450238269    -7.000000000
    0.069000    -0.040331830    -0.450238269    -0.040780286    -0.446714742    -7.000000000
    0.070000    -0.040780286    -0.446714742    -0.041225233    -0.443218786    -7.000000000
    0.071000    -0.041225233    -0.443218786    -0.041666698    -0.439750185    -7.000000000
    0.072000    -0.041666698    -0.439750185    -0.042104708    -0.436308725    -7.000000000
    0.073000    -0.042104708    -0.436308725    -0.042539290    -0.432894194    -7.000000000
    0.074000    -0.042539290    -0.432894194    -0.042970471    -0.429506380    -7.000000000
    0.075000    -0.042970471    -0.429506380    -0.043398278    -0.426145076    -7.000000000
    0.076000    -0.043398278    -0.426145076    -0.043822737    -0.422810073    -7.000000000
    0.077000    -0.043822737    -0.422810073    -0.044243874    -0.419501167    -7.000000000
    0.078000    -0.044243874    -0.419501167    -0.044661715    -0.416218152    -7.000000000
    0.079000    -0.044661715    -0.416218152    -0.045076286    -0.412960827    -7.000000000
    0.080000    -0.045076286    -0.412960827    -0.045487613    -0.409728989    -7.000000000
    0.081000    -0.045487613    -0.409728989    -0.045895720    -0.406522441    -7.000000000
    0.082000    -0.045895720    -0.406522441    -0.046300634    -0.403340984    -7.000000000
    0.083000    -0.046300634    -0.403340984    -0.046702379    -0.400184421    -7.000000000
    0.084000    -0.046702379    -0.400184421    -0.047100980    -0.397052559    -7.000000000
    0.085000    -0.047100980    -0.397052559    -0.047496461    -0.393945203    -7.000000000
    0.086000    -0.047496461    -0.393945203    -0.047888847    -0.390862163    -7.000000000
    0.087000    -0.047888847    -0.390862163    -0.048278162    -0.387803247    -7.000000000
    0.088000    -0.048278162    -0.387803247    -0.048664431    -0.384768268    -7.000000000
    0.089000    -0.048664431    -0.384768268    -0.049047677    -0.381757037    -7.000000000
    0.090000    -0.049047677    -0.381757037    -0.049427923    -0.378769370    -7.000000000
    0.091000    -0.049427923    -0.378769370    -0.049805193    -0.375805081    -7.000000000
    0.092000    -0.049805193    -0.375805081    -0.050179511    -0.372863989    -7.000000000
    0.093000    -0.050179511    -0.372863989    -0.050550900    -0.369945910    -7.000000000
    0.094000    -0.050550900    -0.369945910    -0.050919382    -0.367050666    -7.000000000
    0.095000    -0.050919382    -0.367050666    -0.051284980    -0.364178078    -7.000000000
    0.096000    -0.051284980    -0.364178078    -0.051647717    -0.361327968    -7.000000000
    0.097000    -0.051647717    -0.361327968    -0.052007615    -0.358500161    -7.000000000
    0.098000    -0.052007615    -0.358500161    -0.052364696    -0.355694483    -7.000000000
    0.099000    -0.052364696    -0.355694483    -0.052718983    -0.352910759    -7.000000000
    0.100000    -0.052718983    -0.352910759    -0.053070497    -0.350148818    -7.000000000
    0.101000    -0.053070497    -0.350148818    -0.053419261    -0.347408490    -7.000000000
    0.102000    -0.053419261    -0.347408490    -0.053765294    -0.344689606    -7.000000000
    0.103000    -0.053765294    -0.344689606    -0.054108620    -0.341991999    -7.000000000
    0.104000    -0.054108620    -0.341991999    -0.054449258    -0.339315500    -7.000000000
    0.105000    -0.054449258    -0.339315500    -0.054787231    -0.336659946    -7.000000000
    0.106000    -0.054787231    -0.336659946    -0.055122559    -0.334025173    -7.000000000
    0.107000    -0.055122559    -0.334025173    -0.055455262    -0.331411018    -7.000000000
    0.108000    -0.055455262    -0.331411018    -0.055785362    -0.328817319    -7.000000000
    0.109000    -0.055785362    -0.328817319    -0.056112878    -0.326243917    -7.000000000
    0.110000    -0.056112878    -0.326243917    -0.056437830    -0.323690652    -7.000000000
    0.111000    -0.056437830    -0.323690652    -0.056760240    -0.321157368    -7.000000000
    0.112000    -0.056760240    -0.321157368    -0.057080127    -0.318643908    -7.000000000
    0.113000    -0.057080127    -0.318643908    -0.057397509    -0.316150117    -7.000000000
    0.114000    -0.057397509    -0.316150117    -0.057712408    -0.313675841    -7.000000000
    0.115000    -0.057712408    -0.313675841    -0.058024843    -0.311220927    -7.000000000
    0.116000    -0.058024843    -0.311220927    -0.058334832    -0.308785224    -7.000000000
    0.117000    -0.058334832    -0.308785224    -0.058642396    -0.306368581    -7.000000000
    0.118000    -0.058642396    -0.306368581    -0.058947552    -0.303970850    -7.000000000
    0.119000    -0.058947552    -0.303970850    -0.059250320    -0.301591882    -7.000000000
    0.120000    -0.059250320    -0.301591882    -0.059550718    -0.299231531    -7.000000000
    0.121000    -0.059550718    -0.299231531    -0.059848765    -0.296889651    -7.000000000
    0.122000    -0.059848765    -0.296889651    -0.060144480    -0.294566097    -7.000000000
    0.123000    -0.060144480    -0.294566097    -0.060437880    -0.292260726    -7.000000000
    0.124000    -0.060437880    -0.292260726    -0.060728985    -0.289973396    -7.000000000
    0.125000    -0.060728985    -0.289973396    -0.061017810    -0.287703966    -7.000000000
    0.126000    -0.061017810    -0.287703966    -0.061304376    -0.285452295    -7.000000000
    0.127000    -0.061304376    -0.285452295    -0.061588698    -0.283218245    -7.000000000
    0.128000    -0.061588698    -0.283218245    -0.061870796    -0.281001678    -7.000000000
    0.129000    -0.061870796    -0.281001678    -0.062150685    -0.278802457    -7.000000000
    0.130000    -0.062150685    -0.278802457    -0.062428385    -0.276620446    -7.000000000
    0.131000    -0.062428385    -0.276620446    -0.062703910    -0.274455510    -7.000000000
    0.132000    -0.062703910    -0.274455510    -0.062977280    -0.272307517    -7.000000000
    0.133000    -0.062977280    -0.272307517    -0.063248510    -0.270176333    -7.000000000
    0.134000    -0.063248510    -0.270176333    -0.063517617    -0.268061827    -7.000000000
    0.135000    -0.063517617    -0.268061827    -0.063784618    -0.265963868    -7.000000000
    0.136000    -0.063784618    -0.265963868    -0.064049529    -0.263882328    -7.000000000
    0.137000    -0.064049529    -0.263882328    -0.064312367    -0.261817077    -7.000000000
    0.138000    -0.064312367    -0.261817077    -0.064573148    -0.259767988    -7.000000000
    0.139000    -0.064573148    -0.259767988    -0.064831888    -0.257734934    -7.000000000
    0.140000    -0.064831888    -0.257734934    -0.065088603    -0.255717791    -7.000000000
    0.141000    -0.065088603    -0.255717791    -0.065343309    -0.253716434    -7.000000000
    0.142000    -0.065343309    -0.253716434    -0.065596021    -0.251730738    -7.000000000
    0.143000    -0.065596021    -0.251730738    -0.065846756    -0.249760582    -7.000000000
    0.144000    -0.065846756    -0.249760582    -0.066095528    -0.247805844    -7.000000000
    0.145000    -0.066095528    -0.247805844    -0.066342353    -0.245866404    -7.000000000
    0.146000    -0.066342353    -0.245866404    -0.066587246    -0.243942141    -7.000000000
    0.147000    -0.066587246    -0.243942141    -0.066830223    -0.242032937    -7.000000000
    0.148000    -0.066830223    -0.242032937    -0.067071298    -0.240138674    -7.000000000
    0.149000    -0.067071298    -0.240138674    -0.067310486    -0.238259236    -7.000000000
    0.150000    -0.067310486    -0.238259236    -0.067547803    -0.236394505    -7.000000000
    0.151000    -0.067547803    -0.236394505    -0.067783262    -0.234544368    -7.000000000
    0.152000    -0.067783262    -0.234544368    -0.068016878    -0.232708709    -7.000000000
    0.153000    -0.068016878    -0.232708709    -0.068248666    -0.230887416    -7.000000000
    0.154000    -0.068248666    -0.230887416    -0.068478639    -0.229080377    -7.000000000
    0.155000    -0.068478639    -0.229080377    -0.068706813    -0.227287479    -7.000000000
    0.156000    -0.068706813    -0.227287479    -0.068933201    -0.225508612    -7.000000000
    0.157000    -0.068933201    -0.225508612    -0.069157817    -0.223743666    -7.000000000
    0.158000    -0.069157817    -0.223743666    -0.069380675    -0.221992533    -7.000000000
    0.159000    -0.069380675    -0.221992533    -0.069601789    -0.220255104    -7.000000000
    0.160000    -0.069601789    -0.220255104    -0.069821173    -0.218531271    -7.000000000
    0.161000    -0.069821173    -0.218531271    -0.070038839    -0.216820930    -7.000000000
    0.162000    -0.070038839    -0.216820930    -0.070254802    -0.215123973    -7.000000000
    0.163000    -0.070254802    -0.215123973    -0.070469075    -0.213440297    -7.000000000
    0.164000    -0.070469075    -0.213440297    -0.070681670    -0.211769797    -7.000000000
    0.165000    -0.070681670    -0.211769797    -0.070892602    -0.210112371    -7.000000000
    0.166000    -0.070892602    -0.210112371    -0.071101883    -0.208467915    -7.000000000
    0.167000    -0.071101883    -0.208467915    -0.071309526    -0.206836329    -7.000000000
    0.168000    -0.071309526    -0.206836329    -0.071515544    -0.205217512    -7.000000000
    0.169000    -0.071515544    -0.205217512    -0.071719949    -0.203611364    -7.000000000
    0.170000    -0.071719949    -0.203611364    -0.071922755    -0.202017785    -7.000000000
    0.171000    -0.071922755    -0.202017785    -0.072123973    -0.200436678    -7.000000000
    0.172000    -0.072123973    -0.200436678    -0.072323616    -0.198867945    -7.000000000
    0.173000    -0.072323616    -0.198867945    -0.072521697    -0.197311489    -7.000000000
    0.174000    -0.072521697    -0.197311489    -0.072718228    -0.195767213    -7.000000000
    0.175000    -0.072718228    -0.195767213    -0.072913220    -0.194235023    -7.000000000
    0.176000    -0.072913220    -0.194235023    -0.073106687    -0.192714824    -7.000000000
    0.177000    -0.073106687    -0.192714824    -0.073298639    -0.191206523    -7.000000000
    0.178000    -0.073298639    -0.191206523    -0.073489089    -0.189710025    -7.000000000
    0.179000    -0.073489089    -0.189710025    -0.073678048    -0.188225240    -7.000000000
    0.180000    -0.073678048    -0.188225240    -0.073865528    -0.186752074    -7.000000000
    0.181000    -0.073865528    -0.186752074    -0.074051541    -0.185290437    -7.000000000
    0.182000    -0.074051541    -0.185290437    -0.074236098    -0.183840240    -7.000000000
    0.183000    -0.074236098    -0.183840240    -0.074419211    -0.182401391    -7.000000000
    0.184000    -0.074419211    -0.182401391    -0.074600890    -0.180973804    -7.000000000
    0.185000    -0.074600890    -0.180973804    -0.074781148    -0.179557389    -7.000000000
    0.186000    -0.074781148    -0.179557389    -0.074959995    -0.178152059    -7.000000000
    0.187000    -0.074959995    -0.178152059    -0.075137442    -0.176757727    -7.000000000
    0.188000    -0.075137442    -0.176757727    -0.075313500    -0.175374308    -7.000000000
    0.189000    -0.075313500    -0.175374308    -0.075488180    -0.174001715    -7.000000000
    0.190000    -0.075488180    -0.174001715    -0.075661493    -0.172639865    -7.000000000
    0.191000    -0.075661493    -0.172639865    -0.075833450    -0.171288673    -7.000000000
    0.192000    -0.075833450    -0.171288673    -0.076004061    -0.169948055    -7.000000000
    0.193000    -0.076004061    -0.169948055    -0.076173336    -0.168617930    -7.000000000
    0.194000    -0.076173336    -0.168617930    -0.076341287    -0.167298214    -7.000000000
    0.195000    -0.076341287    -0.167298214    -0.076507923    -0.165988827    -7.000000000
    0.196000    -0.076507923    -0.165988827    -0.076673255    -0.164689687    -7.000000000
    0.197000    -0.076673255    -0.164689687    -0.076837293    -0.163400714    -7.000000000
    0.198000    -0.076837293    -0.163400714    -0.077000047    -0.162121830    -7.000000000
    0.199000    -0.077000047    -0.162121830    -0.077161527    -0.160852954    -7.000000000
    0.200000    -0.077161527    -0.160852954    -0.077321743    -0.159594008    -7.000000000
    0.201000    -0.077321743    -0.159594008    -0.077480706    -0.158344916    -7.000000000
    0.202000    -0.077480706    -0.158344916    -0.077638424    -0.157105599    -7.000000000
    0.203000    -0.077638424    -0.157105599    -0.077794908    -0.155875982    -7.000000000
    0.204000    -0.077794908    -0.155875982    -0.077950167    -0.154655988    -7.000000000
    0.205000    -0.077950167    -0.154655988    -0.078104211    -0.153445542    -7.000000000
    0.206000    -0.078104211    -0.153445542    -0.078257049    -0.152244569    -7.000000000
    0.207000    -0.078257049    -0.152244569    -0.078408691    -0.151052995    -7.000000000
    0.208000    -0.078408691    -0.151052995    -0.078559146    -0.149870747    -7.000000000
    0.209000    -0.078559146    -0.149870747    -0.078708424    -0.148697752    -7.000000000
    0.210000    -0.078708424    -0.148697752    -0.078856533    -0.147533936    -7.000000000
    0.211000    -0.078856533    -0.147533936    -0.079003483    -0.146379230    -7.000000000
    0.212000    -0.079003483    -0.146379230    -0.079149283    -0.145233560    -7.000000000
